 #              _____________________  _______________________             #
 #              ___  __ \__  __ \_  / / /_  /___  ____/_  ___/             #
 #              __  / / /_  /_/ /  / / /_  __/_  __/  _____ \              #
 #              _  /_/ /_  _, _// /_/ / / /_ _  /___  ____/ /              #
 #              /_____/ /_/ |_| \____/  \__/ /_____/  /____/               #
 #                                                                         #
  
 #        time                      T            heat flux [W.L-2]   in    x              directions   cumulative flux
 #-----------------------------------------------------------------------------------------------

   0.0000000000000000        25.000000000000000       -0.0000000000000000        0.0000000000000000     
   1.0000000000000000        25.000000000000004        6.0396132539608516E-013   6.0396132539608516E-013
   2.0600000000000001        24.999999999918195        7.7427841915778117E-010   7.7488238048317726E-010
   3.1836000000000002        24.999999999543306        3.4178171404164459E-009   4.1926995208996232E-009
   4.3746160000000005        24.999999998577458        8.5061913068784634E-009   1.2698890827778087E-008
   5.6370929600000004        24.999999996725869        1.5841905565139314E-008   2.8540796392917400E-008
   6.9753185376000006        24.999999993759040        2.4792612407509296E-008   5.3333408800426696E-008
   8.3938376498560014        24.999999989532682        3.4678251381592418E-008   8.8011660182019114E-008
   9.8974679088473625        24.999999983978149        4.4974584056944877E-008   1.3298624423896399E-007
   11.491315983378204        24.999999977081334        5.5360906969781354E-008   1.8834715120874534E-007
   13.180794942380897        24.999999968861410        6.5682002059475053E-008   2.5402915326822040E-007
   14.971642638923752        24.999999959354032        7.5893780149272061E-008   3.2992293341749246E-007
   16.869941197259177        24.999999948599637        8.6014964040259656E-008   4.1593789745775211E-007
   18.882137669094728        24.999999936635835        9.6097494406421902E-008   5.1203539186417402E-007
   21.015065929240414        24.999999923492787        1.0620478718692539E-007   6.1824017905109940E-007
   23.275969884994840        24.999999909190549        1.1640327812756368E-007   7.3464345717866308E-007
   25.672528078094530        24.999999893737716        1.2675215543822560E-007   8.6139561261688868E-007
   28.212879762780204        24.999999877130925        1.3730517167687140E-007   9.9870078429376008E-007
   30.905652548547017        24.999999859354894        1.4810701998158038E-007   1.1468078042753405E-006
   33.759991701459839        24.999999840382824        1.5919574991585250E-007   1.3060035541911930E-006
   36.785591203547433        24.999999820177010        1.7059853973933059E-007   1.4766020939305236E-006
   39.992726675760281        24.999999798689572        1.8233954790503049E-007   1.6589416418355540E-006
   43.392290276305900        24.999999775863177        1.9443206156211090E-007   1.8533737033976649E-006
   46.995827692884255        24.999999751631751        2.0688876389840516E-007   2.0602624672960701E-006
   50.815577354457311        24.999999725921072        2.1971388264319103E-007   2.2799763499392611E-006
   54.864511995724754        24.999999698649244        2.3290983364177009E-007   2.5128861835810312E-006
   59.156382715468240        24.999999669727050        2.4647359708751537E-007   2.7593597806685466E-006
   63.705765678396340        24.999999639058156        2.6040094525114910E-007   3.0197607259196957E-006
   68.528111619100116        24.999999606539177        2.7468342267411572E-007   3.2944441485938114E-006
   73.639798316246129        24.999999572059608        2.8931015805255811E-007   3.5837543066463695E-006
   79.058186215220900        24.999999535501690        3.0426907215996835E-007   3.8880233788063379E-006
   84.801677388134152        24.999999496740131        3.1954385804056074E-007   4.2075672368468986E-006
   90.889778031422210        24.999999455641785        3.3511760477722419E-007   4.5426848416241228E-006
   97.343164713307544        24.999999412065279        3.5097219353019682E-007   4.8936570351543196E-006
   104.18375459610600        24.999999365860518        3.6708648565308977E-007   5.2607435208074094E-006
   111.43477987187237        24.999999316868220        3.8343632269288719E-007   5.6441798435002966E-006
   119.12086666418472        24.999999264919371        3.9999875411922403E-007   6.0441785976195206E-006
   127.26811866403581        24.999999209834630        4.1674539374980668E-007   6.4609239913693273E-006
   135.90420578387796        24.999999151423729        4.3364906332499231E-007   6.8945730546943196E-006
   145.05845813091065        24.999999089484795        4.5068198062381271E-007   7.3452550353181323E-006
   154.76196561876529        24.999999023803650        4.6781273965734727E-007   7.8130677749754796E-006
   165.04768355589121        24.999998954153071        4.8500872651402460E-007   8.2980765014895042E-006
   175.95054456924470        24.999998880292011        5.0223732728227333E-007   8.8003138287717775E-006
   187.50757724339940        24.999998801984425        5.1944297752015700E-007   9.3197568062919345E-006
   199.75803187800338        24.999998718943345        5.3662326138237404E-007   9.8563800676743085E-006
   212.74351379068358        24.999998630879922        5.5373348573084513E-007   1.0410113553405154E-005
   226.50812461812461        24.999998537488970        5.7073862080869731E-007   1.0980852174213851E-005
   241.09861209521210        24.999998438446930        5.8760182497508140E-007   1.1568453999188932E-005
   256.56452882092486        24.999998333410655        6.0428746451179904E-007   1.2172741463700731E-005
   272.95840055018039        24.999998222016217        6.2075869777800108E-007   1.2793500161478732E-005
   290.33590458319122        24.999998103877637        6.3698109897813993E-007   1.3430481260456872E-005
   308.75605885818271        24.999997978585572        6.5291963835534261E-007   1.4083400898812215E-005
   328.28142238967371        24.999997845705927        6.6853687030743458E-007   1.4751937769119650E-005
   348.97830773305412        24.999997704778387        6.8380440865212222E-007   1.5435742177771772E-005
   370.91700619703738        24.999997555314820        6.9869265928446112E-007   1.6134434837056233E-005
   394.17202656885962        24.999997396797646        7.1317987959673701E-007   1.6847614716652970E-005
   418.82234816299120        24.999997228678033        7.2726063393702134E-007   1.7574875350589991E-005
   444.95168905277069        24.999997050374002        7.4095847679700455E-007   1.8315833827386996E-005
   472.64879039593694        24.999996861268308        7.5436581425947224E-007   1.9070199641646468E-005
   502.00771781969320        24.999996660706032        7.6770369616951939E-007   1.9837903337815987E-005
   533.12818088887479        24.999996447991716        7.8146435100734379E-007   2.0619367688823331E-005
   566.11587174220733        24.999996222385505        7.9667149321949182E-007   2.1416039182042823E-005
   601.08282404673980        24.999995983097584        8.1537859131231016E-007   2.2231417773355133E-005
   638.14779348954426        24.999995729279235        8.4159534452510343E-007   2.3073013117880237E-005
   677.43666109891694        24.999995460007447        8.8296729927606066E-007   2.3955980417156297E-005
   719.08286076485194        24.999995174257457        9.5374552699922788E-007   2.4909725944155525E-005
   763.22783241074308        24.999994870852838        1.0798900973441050E-006   2.5989616041499630E-005
   810.02150235538772        24.999994548375255        1.3076710914106116E-006   2.7297287132910242E-005
   859.62279249671099        24.999994205002679        1.7177137223711725E-006   2.9015000855281414E-005
   912.20016004651370        24.999993838224384        2.4473829540738734E-006   3.1462383809355288E-005
   967.93216964930457        24.999993444348746        3.7254388018936879E-006   3.5187822611248976E-005
   1027.0080998282629        24.999993017671116        5.9242288585892311E-006   4.1112051469838207E-005
   1089.6285858179588        24.999992549098515        9.6359607582030549E-006   5.0748012228041262E-005
   1156.0063009670364        24.999992023928826        1.5780877689053341E-005   6.6528889917094602E-005
   1226.3666790250586        24.999991418348618        2.5755909582869663E-005   9.2284799499964265E-005
   1300.9486797665622        24.999990694040733        4.1632301943650418E-005   1.3391710144361468E-004
   1380.0056005525560        24.999989790079631        6.6409375634179924E-005   2.0032647707779461E-004
   1463.8059365857093        24.999988611042482        1.0432846114127869E-004   3.0465493821907330E-004
   1552.6342927808519        24.999987009989184        1.6124577705056709E-004   4.6590071526964039E-004
   1646.7923503477032        24.999984764686531        2.4505567889576696E-004   7.1095639416540735E-004
   1746.5998913685655        24.999981545201592        3.6614621450326013E-004   1.0771026086686675E-003
   1852.3958848506795        24.999976870808979        5.3785841785725097E-004   1.6149610265259184E-003
   1964.5396379417205        24.999970054094494        7.7690997347446000E-004   2.3918710000003784E-003
   2083.4120162182239        24.999960130243871        1.1037346921938251E-003   3.4956056921942036E-003
   2209.4167371913172        24.999945769846505        1.5426831133069641E-003   5.0382888055011676E-003
   2342.9817414227964        24.999925173995155        2.1220284704881465E-003   7.1603172759893141E-003
   2484.5606459081641        24.999895951576427        2.8737271075840454E-003   1.0034044383573359E-002
   2634.6342846626540        24.999854979352314        3.8328942860843540E-003   1.3866938669657713E-002
   2793.7123417424132        24.999798246965668        5.0369743615874540E-003   1.8903913031245168E-002
   2962.3350822469583        24.999720690301494        6.5246077463143592E-003   2.5428520777559527E-002
   3141.0751871817761        24.999616018060276        8.3342234267647086E-003   3.3762744204324235E-002
   3330.5396984126828        24.999476537715051        1.0502412508550663E-002   4.4265156712874898E-002
   3531.3720803174438        24.999292988115787        1.3062162155570434E-002   5.7327318868445332E-002
   3744.2544051364907        24.999054386762189        1.6041047759216553E-002   7.3368366627661885E-002
   3969.9096694446803        24.998747900096163        1.9459491671369733E-002   9.2827858299031618E-002
   4209.1042496113614        24.998358745012816        2.3329198452941569E-002  0.11615705675197319     
   4462.6505045880431        24.997870129134782        2.7651868666964674E-002  0.14380892541893786     
   4731.4095348633255        24.997263236264189        3.2418276906867050E-002  0.17622720232580491     
   5016.2941069551252        24.996517261883280        3.7607776577779362E-002  0.21383497890358427     
   5318.2717533724335        24.995609501714412        4.3188266287899069E-002  0.25702324519148334     
   5638.3680585747798        24.994515494291011        4.9116623322404962E-002  0.30613986851388830     
   5977.6701420892668        24.993209216362175        5.5339581112292535E-002  0.36147944962618084     
   6337.3303506146231        24.991663327881774        6.1795002195204063E-002  0.42327445182138490     
   6718.5701716515005        24.989849461436190        6.8413477790691957E-002  0.49168792961207686     
   7122.6843819505912        24.987738549337493        7.5120170749549686E-002  0.56680810036162654     
   7551.0454448676273        24.985301180267861        8.1836812737350328E-002  0.64864491309897687     
   8005.1081715596856        24.982507976372201        8.8483765323132957E-002  0.73712867842210983     
   8486.4146618532668        24.979329981279129        9.4982052928926919E-002  0.83211073135103675     
   8996.5995415644629        24.975739049518761       0.10125528516073956       0.93336601651177631     
   9537.3955140583312        24.971708228196551       0.10723139976665408        1.0405974162784304     
   10110.639244901831        24.967212122303156       0.11284417709280348        1.1534415933712339     
   10718.277599595942        24.962227235740169       0.11803449400613175        1.2714760873773656     
   11362.374255571698        24.956732281018315       0.12275129910047866        1.3942273864778443     
   12045.116710906001        24.950708451664724       0.12695230235699739        1.5211796888348417     
   12768.823713560361        24.944139652635876       0.13060438247197936        1.6517840713068210     
   13535.953136373984        24.937012685427987       0.13368372400076822        1.7854677953075893     
   14349.110324556425        24.929317386069744       0.13617570390000111        1.9216434992075904     
   15211.056944029811        24.921046718485918       0.13807450705126456        2.0597180062588549     
   16124.720360671601        24.912196823955220       0.13938257145134969        2.1991005777102046     
   17093.203582311897        24.902767025936985       0.14010993327115528        2.3392105109813599     
   18093.203582311897        24.893018257913916       0.14028178649585499        2.4794922974772149     
   19093.203582311897        24.883290335305396       0.13997856525129748        2.6194708627285124     
   20093.203582311897        24.873610410987460       0.13928756655982255        2.7587584292883349     
   21093.203582311897        24.864000348097214       0.13828173740542127        2.8970401666937562     
   22093.203582311897        24.854477787730577       0.13702187431498203        3.0340620410087382     
   23093.203582311897        24.845056859594159       0.13555854074404294        3.1696205817527812     
   24093.203582311897        24.835748777996656       0.13393371802440157        3.3035542997771827     
   25093.203582311897        24.826562340188573       0.13218221150506082        3.4357365112822436     
   26093.203582311897        24.817504342172022       0.13033283896632497        3.5660693502485685     
   27093.203582311897        24.808579925135561       0.12840942959659429        3.6944787798451628     
   28093.203582311897        24.799792863786298       0.12643166065153366        3.8209104404966965     
   29093.203582311897        24.791145806140428       0.12441575644629665        3.9453261969429931     
   30093.203582311897        24.782640472827701       0.12237507134368997        4.0677012682866831     
   31093.203582311897        24.774277822667454       0.12032057543208907        4.1880218437187722     
   32093.203582311897        24.766058190168000       0.11826125882741678        4.3062831025461890     
   33093.203582311893        24.757981394810511       0.11620453798389718        4.4224876405300861     
   34093.203582311893        24.750046833657830       0.11415649554582075        4.5366441360759069     
   35093.203582311893        24.742253563492223       0.11212203209947091        4.6487661681753778     
   36093.203582311893        24.734600371034386       0.11010503636036617        4.7588712045357440     
   37093.203582311893        24.727085830228649       0.10810857237590454        4.8669797769116485     
   38093.203582311893        24.719708347690887       0.10613504975790278        4.9731148266695513     
   39093.203582311893        24.712466198780120       0.10418635868305159        5.0773011853526029     
   40093.203582311893        24.705357556661522       0.10226397082693239        5.1795651561795353     
   41093.203582311893        24.698380516120476       0.10036901493588601        5.2799341711154213     
   42093.203582311893        24.691533113306260        9.8502335451122747E-002   5.3784365065665440     
   43093.203582311893        24.684813342191102        9.6664539804329763E-002   5.4751010463708738     
   44093.203582311893        24.678219168298590        9.4856037725890019E-002   5.5699570840967638     
   45093.203582311893        24.671748540129578        9.3077074427121431E-002   5.6630341585238853     
   46093.203582311893        24.665399398634342        9.1327758708033002E-002   5.7543619172319183     
   47093.203582311893        24.659169685029553        8.9608086805341713E-002   5.8439700040372600     
   48093.203582311893        24.653057347217668        8.7917962517671810E-002   5.9318879665549318     
   49093.203582311893        24.647060345028539        8.6257214162976936E-002   6.0181451807179087     
   50093.203582311893        24.641176654473330        8.4625608797601615E-002   6.1027707895155103     
   51093.203582311893        24.635404271173659        8.3022864103448057E-002   6.1857936536189584     
   52093.203582311893        24.629741213101507        8.1448658300793397E-002   6.2672423119197518     
   53093.203582311893        24.624185522746657        7.9902638402025161E-002   6.3471449503217769     
   54093.203582311893        24.618735268808305        7.8384427058750816E-002   6.4255293773805278     
   55093.203582311893        24.613388547492271        7.6893628232994615E-002   6.5024230056135224     
   56093.203582311893        24.608143483482568        7.5429831899640476E-002   6.5778528375131629     
   57093.203582311893        24.602998230643202        7.3992617932319149E-002   6.6518454554454820     
   58093.203582311893        24.597950972498168        7.2581559282056674E-002   6.7244270147275387     
   59093.203582311893        24.592999922528534        7.1196224634704208E-002   6.7956232393622429     
   60093.203582311893        24.588143324319276        6.9836180539297743E-002   6.8654594199015406     
   61093.203582311893        24.583379451583973        6.8500993201823235E-002   6.9339604131033639     
   62093.203582311893        24.578706608089234        6.7190229919624755E-002   7.0011506430229886     
   63093.203582311893        24.574123127496922        6.5903460246445889E-002   7.0670541032694345     
   64093.203582311893        24.569627373141721        6.4640256950312391E-002   7.1316943602197469     
   65093.203582311893        24.565217737754683        6.3400196773919504E-002   7.1950945569936664     
   66093.203582311893        24.560892643145039        6.2182861042217041E-002   7.2572774180358834     
   67093.203582311893        24.556650539848178        6.0987836141350726E-002   7.3182652541772342     
   68093.203582311893        24.552489906748225        5.9814713905197436E-002   7.3780799680824316     
   69093.203582311893        24.548409250679672        5.8663091889563646E-002   7.4367430599719953     
   70093.203582311893        24.544407106014454        5.7532573604106574E-002   7.4942756335761018     
   71093.203582311893        24.540482034238057        5.6422768656076983E-002   7.5506984022321788     
   72093.203582311893        24.536632623517693        5.5333292873527284E-002   7.6060316951057061     
   73093.203582311893        24.532857488266153        5.4263768360272024E-002   7.6602954634659781     
   74093.203582311893        24.529155268702873        5.3213823542996863E-002   7.7135092870089750     
   75093.203582311893        24.525524630414658        5.2183093175486306E-002   7.7656923801844613     
   76093.203582311893        24.521964263916999        5.1171218321108825E-002   7.8168635985055701     
   77093.203582311893        24.518472884217736        5.0177846329262366E-002   7.8670414448348325     
   78093.203582311893        24.515049230383980        4.9202630782829715E-002   7.9162440756176622     
   79093.203582311893        24.511692065112815        4.8245231448653669E-002   7.9644893070663159     
   80093.203582311893        24.508400174306701        4.7305314209289406E-002   8.0117946212756053     
