 #              _____________________  _______________________             #
 #              ___  __ \__  __ \_  / / /_  /___  ____/_  ___/             #
 #              __  / / /_  /_/ /  / / /_  __/_  __/  _____ \              #
 #              _  /_/ /_  _, _// /_/ / / /_ _  /___  ____/ /              #
 #              /_____/ /_/ |_| \____/  \__/ /_____/  /____/               #
 #                                                                         #
  
 #        time                      h  [L]                   theta [-]       Darcian flow [L.T^{-1}]   in    x              directions   cumulative flux
 #-----------------------------------------------------------------------------------------------

   0.0000000000000000      -0.28000000000000003       0.35977306608771875        1.6806575933321869E-021   1.6806575933321869E-021
   1.0000000000000000      -0.28076636709811359       0.35977239245578213        1.4299828572746069E-008   1.4299828572747750E-008
   2.0600000000000001      -0.28149032838656990       0.35977175596514133        2.1631775121244735E-008   3.5931603693992486E-008
   3.1836000000000002      -0.28212246896071730       0.35977120009572322        2.5340783735964947E-008   6.1272387429957440E-008
   4.3746160000000005      -0.28269074567172553       0.35977070030089836        2.7510908715659640E-008   8.8783296145617084E-008
   5.6370929600000004      -0.28321708905665471       0.35977023731551860        2.8945438460828734E-008   1.1772873460644582E-007
   6.9753185376000006      -0.28371568494443422       0.35976979867508468        2.9971886152246915E-008   1.4770062075869274E-007
   8.3938376498560014      -0.28419626931375563       0.35976937582288759        3.0742009951060311E-008   1.7844263070975306E-007
   9.8974679088473625      -0.28466616971543240       0.35976896231680250        3.1335068642025574E-008   2.0977769935177864E-007
   11.491315983378204      -0.28513138146608485       0.35976855288377596        3.1797085190209077E-008   2.4157478454198774E-007
   13.180794942380897      -0.28559712345628657       0.35976814293146187        3.2157589350844045E-008   2.7373237389283179E-007
   14.971642638923752      -0.28606812021327471       0.35976772830037829        3.2437379041903825E-008   3.0616975293473563E-007
   16.869941197259177      -0.28654874054050861       0.35976730514209410        3.2652284816163749E-008   3.3882203775089941E-007
   18.882137669094728      -0.28704306381365979       0.35976686986098250        3.2815024559719743E-008   3.7163706231061915E-007
   21.015065929240414      -0.28755491338910949       0.35976641908486090        3.2936120933680894E-008   4.0457318324430006E-007
   23.275969884994840      -0.28808787860578855       0.35976594964562980        3.3024366046718211E-008   4.3759754929101829E-007
   25.672528078094530      -0.28864533627271166       0.35976545856033171        3.3087079959496667E-008   4.7068462925051496E-007
   28.212879762780204      -0.28923047628725068       0.35976494300854173        3.3130285695173540E-008   5.0381491494568851E-007
   30.905652548547017      -0.28984633245753760       0.35976440030514417        3.3158857422802547E-008   5.3697377236849104E-007
   33.759991701459839      -0.29049581770790911       0.35976382786921413        3.3176663903093547E-008   5.7015043627158454E-007
   36.785591203547433      -0.29118176200087936       0.35976322319046899        3.3186712163492426E-008   6.0333714843507697E-007
   39.992726675760281      -0.29190695110798626       0.35976258379492976        3.3191288862646029E-008   6.3652843729772297E-007
   43.392290276305900      -0.29267416453937167       0.35976190721127838        3.3192094438071981E-008   6.6972053173579493E-007
   46.995827692884255      -0.29348621131918479       0.35976119093906400        3.3190365346496888E-008   7.0291089708229180E-007
   50.815577354457311      -0.29434596274773056       0.35976043241951250        3.3186981056022404E-008   7.3609787813831419E-007
   54.864511995724754      -0.29525638173767249       0.35975962900930047        3.3182554120294736E-008   7.6928043225860895E-007
   59.156382715468240      -0.29622054869624825       0.35975877795731570        3.3177503215094314E-008   8.0245793547370331E-007
   63.705765678396340      -0.29724168421905972       0.35975787638416812        3.3172110232131758E-008   8.3563004570583502E-007
   68.528111619100116      -0.29832316905422807       0.35975692126404257        3.3166563326241931E-008   8.6879660903207696E-007
   73.639798316246129      -0.29946856189506743       0.35975590940839841        3.3160988218254984E-008   9.0195759725033193E-007
   79.058186215220900      -0.30068161558143686       0.35975483745099923        3.3155470132812151E-008   9.3511306738314405E-007
   84.801677388134152      -0.30196629225608207       0.35975370183378497        3.3150068591078481E-008   9.6826313597422247E-007
   90.889778031422210      -0.30332677795448482       0.35975249879315829        3.3144826977004549E-008   1.0014079629512270E-006
   97.343164713307544      -0.30476749702411360       0.35975122434632834        3.3139778434284221E-008   1.0345477413855112E-006
   104.18375459610600      -0.30629312668578024       0.35974987427742666        3.3134949290053686E-008   1.0676826906755650E-006
   111.43477987187237      -0.30790861197535324       0.35974844412317625        3.3130360880157906E-008   1.1008130515557228E-006
   119.12086666418472      -0.30961918124291016       0.35974692915794654        3.3126030387673994E-008   1.1339390819433968E-006
   127.26811866403581      -0.31143036233971622       0.35974532437806767        3.3121971105986061E-008   1.1670610530493827E-006
   135.90420578387796      -0.31334799958995968       0.35974362448530578        3.3118192392789970E-008   1.2001792454421727E-006
   145.05845813091065      -0.31537827162182724       0.35974182386942088        3.3114699483798977E-008   1.2332939449259717E-006
   154.76196561876529      -0.31752771011855141       0.35973991658973842        3.3111493269894296E-008   1.2664054381958661E-006
   165.04768355589121      -0.31980321954247093       0.35973789635567249        3.3108570102075984E-008   1.2995140082979421E-006
   175.95054456924470      -0.32221147713242065       0.35973575705772254        3.3107776708899406E-008   1.3326217850068416E-006
   187.50757724339940      -0.32476071129587347       0.35973349118559916        3.3105675469045253E-008   1.3657274604758868E-006
   199.75803187800338      -0.32745909992935529       0.35973109124757913        3.3103723641986875E-008   1.3988311841178736E-006
   212.74351379068358      -0.33031525272065976       0.35972854933962389        3.3101995488979987E-008   1.4319331796068536E-006
   226.50812461812461      -0.33333826424782653       0.35972585709508886        3.3100470821272137E-008   1.4650336504281256E-006
   241.09861209521210      -0.33653774326840491       0.35972300565527343        3.3099119098979478E-008   1.4981327695271051E-006
   256.56452882092486      -0.33992384085741983       0.35971998564067459        3.3097906185988854E-008   1.5312306757130940E-006
   272.95840055018039      -0.34350727987436369       0.35971678712071870        3.3096795175907653E-008   1.5643274708890016E-006
   290.33590458319122      -0.34729938601736254       0.35971339958171666        3.3095746895314367E-008   1.5974232177843161E-006
   308.75605885818271      -0.35131212054689442       0.35970981189294432        3.3094720466137507E-008   1.6305179382504536E-006
   328.28142238967371      -0.35555811477205213       0.35970601227073967        3.3093673898807059E-008   1.6636116121492606E-006
   348.97830773305412      -0.36005070640889253       0.35970198824049276        3.3092564679508105E-008   1.6967041768287687E-006
   370.91700619703738      -0.36480397793316760       0.35969772659639193        3.3091350326764507E-008   1.7297955271555332E-006
   394.17202656885962      -0.36983279705969729       0.35969321335878129        3.3089988900022101E-008   1.7628855160555553E-006
   418.82234816299120      -0.37515285949047256       0.35968843372897435        3.3088439448736975E-008   1.7959739555042922E-006
   444.95168905277069      -0.38078073408301605       0.35968337204136153        3.3086662394450295E-008   1.8290606178987426E-006
   472.64879039593694      -0.38673391060024026       0.35967801171263869        3.3084619843532864E-008   1.8621452377422755E-006
   502.00771781969320      -0.39303085021343259       0.35967233518797581        3.3082275831485641E-008   1.8952275135737611E-006
   533.12818088887479      -0.39969103894092750       0.35966632388393655        3.3079596503158918E-008   1.9283071100769199E-006
   566.11587174220733      -0.40673504421697027       0.35965995812794715        3.3076550235365304E-008   1.9613836603122854E-006
   601.08282404673980      -0.41418457479846682       0.35965321709410486        3.3073107710412858E-008   1.9944567680226984E-006
   638.14779348954426      -0.42206254423164746       0.35964607873510263        3.3069241948536436E-008   2.0275260099712349E-006
   677.43666109891694      -0.43039313811666785       0.35963851971003663        3.3064928308632477E-008   2.0605909382798675E-006
   719.08286076485194      -0.43920188542574085       0.35963051530784640        3.3060144464871884E-008   2.0936510827447395E-006
   763.22783241074308      -0.44851573414961460       0.35962203936612697        3.3054870366145978E-008   2.1267059531108853E-006
   810.02150235538772      -0.45836313156836084       0.35961306418503314        3.3049088184706812E-008   2.1597550412955920E-006
   859.62279249671099      -0.46877410946561993       0.35960356043598113        3.3042782257943056E-008   2.1927978235535350E-006
   912.20016004651370      -0.47978037463035733       0.35959349706483590        3.3035939027127748E-008   2.2258337625806629E-006
   967.93216964930457      -0.49141540501798858       0.35958284118924988        3.3028546975464270E-008   2.2588623095561272E-006
   1027.0080998282629      -0.50371455197234560       0.35957155798980261        3.3020596566787787E-008   2.2918829061229151E-006
   1089.6285858179588      -0.51671514894233328       0.35955961059456670        3.3012080185818710E-008   2.3248949863087340E-006
   1156.0063009670364      -0.53045662716318687       0.35954695995670244        3.3002992080347764E-008   2.3578979783890816E-006
   1226.3666790250586      -0.54498063881046654       0.35953356472466008        3.2993328304956599E-008   2.3908913066940383E-006
   1300.9486797665622      -0.56033118817763561       0.35951938110454096        3.2983086666243816E-008   2.4238743933602820E-006
   1380.0056005525560      -0.57655477147462675       0.35950436271414238        3.2972266668754599E-008   2.4568466600290365E-006
   1463.8059365857093      -0.59370052589564493       0.35948846042817922        3.2960869461330924E-008   2.4898075294903672E-006
   1552.6342927808519      -0.61182038866086930       0.35947162221414480        3.2948897782841339E-008   2.5227564272732086E-006
   1646.7923503477032      -0.63096926679847753       0.35945379295823926        3.2936355907134410E-008   2.5556927831803432E-006
   1746.5998913685655      -0.65120521850136470       0.35943491428075586        3.2923249586589374E-008   2.5886160327669326E-006
   1852.3958848506795      -0.67258964696875723       0.35941492434027861        3.2909585993340047E-008   2.6215256187602728E-006
   1964.5396379417205      -0.69518750772570737       0.35939375762600073        3.2895373658678741E-008   2.6544209924189517E-006
   2083.4120162182239      -0.71906691590644822       0.35937134531484949        3.2880657763403301E-008   2.6873016501823551E-006
   2209.4167371913172      -0.74430122769909779       0.35934761330787529        3.2865368843153783E-008   2.7201670190255090E-006
   2342.9817414227964      -0.77096742588710887       0.35932248373382009        3.2849565026379488E-008   2.7530165840518886E-006
   2484.5606459081641      -0.79914705566022970       0.35929587406582320        3.2833256505342208E-008   2.7858498405572308E-006
   2634.6342846626540      -0.82892649821955866       0.35926769686068416        3.2816457682734421E-008   2.8186662982399654E-006
   2793.7123417424132      -0.86039728367879187       0.35923785946465053        3.2799184009351602E-008   2.8514654822493170E-006
   2962.3350822469583      -0.89365642941672341       0.35920626369939251        3.2781451748656770E-008   2.8842469339979740E-006
   3141.0751871817761      -0.92880680439271723       0.35917280552850195        3.2763277937279926E-008   2.9170102119352540E-006
   3330.5396984126828      -0.96595752157795089       0.35913737470344131        3.2744680325365323E-008   2.9497548922606193E-006
   3531.3720803174438       -1.0052243610148603       0.35909985438767883        3.2725677301320494E-008   2.9824805695619398E-006
   3744.2544051364907       -1.0467302263018079       0.35906012075764676        3.2706287809983432E-008   3.0151868573719233E-006
   3969.9096694446803       -1.0906056376070530       0.35901804257906805        3.2686531266894979E-008   3.0478733886388184E-006
   4209.1042496113614       -1.1369892646512929       0.35897348075710217        3.2666427470403337E-008   3.0805398161092215E-006
   4462.6505045880431       -1.1860285034709033       0.35892628785867142        3.2645996511409058E-008   3.1131858126206307E-006
   4731.4095348633255       -1.2378801011863279       0.35887630760523498        3.2625258679988315E-008   3.1458110713006188E-006
   5016.2941069551252       -1.2927108334583235       0.35882337433418759        3.2604234367834050E-008   3.1784153056684528E-006
   5318.2717533724335       -1.3506982398239507       0.35876731242697552        3.2582943964588851E-008   3.2109982496330417E-006
   5638.3680585747798       -1.4120314226673096       0.35870793570194026        3.2561407745538472E-008   3.2435596573785799E-006
   5977.6701420892668       -1.4769119162100464       0.35864504676983383        3.2539645746724958E-008   3.2760993031253049E-006
   6337.3303506146231       -1.5455546326058174       0.35857843634988373        3.2517677624264493E-008   3.3086169807495693E-006
   6718.5701716515005       -1.6181888930079615       0.35850788254424465        3.2495522492135878E-008   3.3411125032417053E-006
   7122.6843819505912       -1.6950595523621865       0.35843315006863280        3.2473198734128087E-008   3.3735857019758335E-006
   7551.0454448676273       -1.7764281413227574       0.35835398952095177        3.2450765693940985E-008   3.4060364676697747E-006
   8005.1081715596856       -1.8625744006190483       0.35827013633111893        3.2428149369212108E-008   3.4384646170389869E-006
   8486.4146618532668       -1.9537976555099608       0.35818130993880071        3.2405416065374517E-008   3.4708700331043614E-006
   8996.5995415644629       -2.0504183860860024       0.35808721286450723        3.2382577426741386E-008   3.5032526105311026E-006
   9537.3955140583312       -2.1527800160538195       0.35798752966443353        3.2359643677200249E-008   3.5356122542083030E-006
   10110.639244901831       -2.2612508560468827       0.35788192584592543        3.2336622833177241E-008   3.5679488770414804E-006
   10718.277599595942       -2.3762262374778853       0.35777004672540685        3.2313520096800414E-008   3.6002623971382806E-006
   11362.374255571698       -2.4981308626269580       0.35765151622318159        3.2290337400291484E-008   3.6325527345385719E-006
   12045.116710906001       -2.6274213980609389       0.35752593559112306        3.2267073022397974E-008   3.6648198075609700E-006
   12768.823713560361       -2.7645893420615284       0.35739288206922126        3.2243721275913460E-008   3.6970635288368834E-006
   13535.953136373984       -2.9101642013732976       0.35725190746644808        3.2220272286723697E-008   3.7292838011236071E-006
   14349.110324556425       -3.0647170180589063       0.35710253666074560        3.2196711889338396E-008   3.7614805130129455E-006
   15211.056944029811       -3.2288644885515070       0.35694426582449063        3.2172959091641034E-008   3.7936534721045865E-006
   16124.720360671601       -3.4032728552367639       0.35677656121193435        3.2149120429132227E-008   3.8258025925337188E-006
   17093.203582311897       -3.5886631257033490       0.35659885705966460        3.2125097518701039E-008   3.8579276900524197E-006
   18093.203582311897       -3.7806933079679328       0.35641543779966495        3.2101455569952952E-008   3.8900291456223729E-006
   19093.203582311897       -3.9733811250996620       0.35623209217266011        3.2078839421747489E-008   3.9221079850441200E-006
   20093.203582311897       -4.1667721345329722       0.35604881740136307        3.2057145145186136E-008   3.9541651301893065E-006
   21093.203582311897       -4.3609083950302656       0.35586561093654179        3.2036276429198012E-008   3.9862014066185046E-006
   22093.203582311897       -4.5558287716965689       0.35568247061386510        3.2016151061576204E-008   4.0182175576800810E-006
   23093.203582311897       -4.7515694064135001       0.35549939457352475        3.1996698873240109E-008   4.0502142565533216E-006
   24093.203582311897       -4.9481641060130768       0.35531638119631886        3.1977859841643801E-008   4.0821921163949650E-006
   25093.203582311897       -5.1456446648298177       0.35513342905288930        3.1959582484924538E-008   4.1141516988798896E-006
   26093.203582311897       -5.3440411344797170       0.35495053686347894        3.1941822512421050E-008   4.1460935213923106E-006
   27093.203582311897       -5.5433820509074305       0.35476770346608183        3.1924541692819818E-008   4.1780180630851307E-006
   28093.203582311897       -5.7436946265890976       0.35458492779129663        3.1907706905243661E-008   4.2099257699903745E-006
   29093.203582311897       -5.9450049141515944       0.35440220884252338        3.1891289342805490E-008   4.2418170593331803E-006
   30093.203582311897       -6.1473379464121489       0.35421954568040953        3.1875263844877374E-008   4.2736923231780578E-006
   31093.203582311897       -6.3507178568565372       0.35403693741067416        3.1859608336041743E-008   4.3055519315140992E-006
   32093.203582311897       -6.5551679838036456       0.35385438317461199        3.1844303355023429E-008   4.3373962348691226E-006
   33093.203582311893       -6.7607107878977377       0.35367188229489266        3.1829421114021274E-008   4.3692256559831435E-006
   34093.203582311893       -6.9673684022928422       0.35348943385067549        3.1814747642792260E-008   4.4010404036259362E-006
   35093.203582311893       -7.1751624073964404       0.35330703693852678        3.1800385800022004E-008   4.4328407894259582E-006
   36093.203582311893       -7.3841137323368260       0.35312469080800063        3.1786319737143740E-008   4.4646271091631017E-006
   37093.203582311893       -7.5942428710652425       0.35294239471484601        3.1772536400040433E-008   4.4963996455631424E-006
   38093.203582311893       -7.8055699329206716       0.35276014791694310        3.1759024754424990E-008   4.5281586703175674E-006
   39093.203582311893       -8.0181146812970461       0.35257794967653894        3.1745775029221733E-008   4.5599044453467889E-006
   40093.203582311893       -8.2318965695094892       0.35239579926130149        3.1732778376789265E-008   4.5916372237235781E-006
   41093.203582311893       -8.4469347739105434       0.35221369594462654        3.1720026684361392E-008   4.6233572504079397E-006
   42093.203582311893       -8.6632482241863382       0.35203163900565104        3.1707512449086550E-008   4.6550647628570266E-006
   43093.203582311893       -8.8808556309698030       0.35184962772918382        3.1695228685682435E-008   4.6867599915427092E-006
   44093.203582311893       -9.0997755110072642       0.35166766140562788        3.1683168854518376E-008   4.7184431603972274E-006
