 #              _____________________  _______________________             #
 #              ___  __ \__  __ \_  / / /_  /___  ____/_  ___/             #
 #              __  / / /_  /_/ /  / / /_  __/_  __/  _____ \              #
 #              _  /_/ /_  _, _// /_/ / / /_ _  /___  ____/ /              #
 #              /_____/ /_/ |_| \____/  \__/ /_____/  /____/               #
 #                                                                         #
  
 #        time                      h  [L]                   theta [-]       Darcian flow [L.T^{-1}]   in    x              directions   cumulative flux
 #-----------------------------------------------------------------------------------------------

   0.0000000000000000      -0.30000000000000004       0.35975543982609626        4.6973552605177779E-024   4.6973552605177779E-024
   1.0000000000000000      -0.30167300421191501       0.35975396112520291        3.0922360905452895E-008   3.0922360905452902E-008
   2.0600000000000001      -0.30256963616881194       0.35975316836509658        3.4553339976302044E-008   6.5475700881754939E-008
   3.1836000000000002      -0.30325877935297385       0.35975255893247066        3.5576799710488007E-008   1.0105250059224295E-007
   4.3746160000000005      -0.30385281785320550       0.35975203351758722        3.6083373591674625E-008   1.3713587418391757E-007
   5.6370929600000004      -0.30439209544596130       0.35975155646836399        3.6401774199303039E-008   1.7353764838322062E-007
   6.9753185376000006      -0.30489677211111915       0.35975110996782317        3.6625710502041854E-008   2.1016335888526248E-007
   8.3938376498560014      -0.30537910100660259       0.35975068318520398        3.6793029777409483E-008   2.4695638866267195E-007
   9.8974679088473625      -0.30584766472282515       0.35975026853232989        3.6922273466217233E-008   2.8387866212888918E-007
   11.491315983378204      -0.30630916742104614       0.35974986007978560        3.7023803609550169E-008   3.2090246573843937E-007
   13.180794942380897      -0.30676927430077189       0.35974945281499277        3.7104086457678060E-008   3.5800655219611740E-007
   14.971642638923752      -0.30723302031993360       0.35974904228097559        3.7167578011183710E-008   3.9517413020730111E-007
   16.869941197259177      -0.30770500910294862       0.35974862440056965        3.7217614049787160E-008   4.3239174425708826E-007
   18.882137669094728      -0.30818950867539141       0.35974819539182051        3.7256842535457823E-008   4.6964858679254610E-007
   21.015065929240414      -0.30869049940657983       0.35974775172561163        3.7287435874773539E-008   5.0693602266731964E-007
   23.275969884994840      -0.30921170338973891       0.35974729009967771        3.7311197609769055E-008   5.4424722027708872E-007
   25.672528078094530      -0.30975661004489868       0.35974680741592585        3.7329620859521345E-008   5.8157684113661003E-007
   28.212879762780204      -0.31032850451363009       0.35974630075525404        3.7343926848937160E-008   6.1892076798554715E-007
   30.905652548547017      -0.31093050080615153       0.35974576734812941        3.7355096670576513E-008   6.5627586465612366E-007
   33.759991701459839      -0.31156557922683892       0.35974520454134434        3.7363901530825444E-008   6.9363976618694913E-007
   36.785591203547433      -0.31223662649189160       0.35974460976235184        3.7370932826543289E-008   7.3101069901349241E-007
   39.992726675760281      -0.31294647663455777       0.35974398048286382        3.7376631670366057E-008   7.6838733068385852E-007
   43.392290276305900      -0.31369795093331670       0.35974331418327071        3.7381316911664880E-008   8.0576864759552341E-007
   46.995827692884255      -0.31449389547804724       0.35974260831910876        3.7385210707583214E-008   8.4315385830310666E-007
   50.815577354457311      -0.31533721546304394       0.35974186029037702        3.7388460961646674E-008   8.8054231926475335E-007
   54.864511995724754      -0.31623090576725094       0.35974106741409345        3.7391160286066669E-008   9.1793347955082005E-007
   59.156382715468240      -0.31717807779026080       0.35974022690011448        3.7393361461003957E-008   9.5532684101182399E-007
   63.705765678396340      -0.31818198282493143       0.35973933582996709        3.7395089613022808E-008   9.9272193062484686E-007
   68.528111619100116      -0.31924603245343774       0.35973839113825906        3.7396351499449677E-008   1.0301182821242965E-006
   73.639798316246129      -0.32037381655994052       0.35973738959613805        3.7397142367584995E-008   1.0675154244918816E-006
   79.058186215220900      -0.32156911957731815       0.35973632779624770        3.7397450872671025E-008   1.1049128753645526E-006
   84.801677388134152      -0.32283593555042267       0.35973520213865839        3.7397262504439842E-008   1.1423101378689924E-006
   90.889778031422210      -0.32417848252732329       0.35973400881731438        3.7396561909125005E-008   1.1797066997781175E-006
   97.343164713307544      -0.32560121670327796       0.35973274380661230        3.7395334418759125E-008   1.2171020341968766E-006
   104.18375459610600      -0.32710884665481949       0.35973140284780364        3.7393567025021454E-008   1.2544956012218981E-006
   111.43477987187237      -0.32870634792313586       0.35972998143498286        3.7391248969098621E-008   1.2918868501909968E-006
   119.12086666418472      -0.33039897814166164       0.35972847480047832        3.7388372065926669E-008   1.3292752222569236E-006
   127.26811866403581      -0.33219229285359281       0.35972687789950492        3.7384930841030009E-008   1.3666601530979536E-006
   135.90420578387796      -0.33409216212956533       0.35972518539396975        3.7380922530953706E-008   1.4040410756289074E-006
   145.05845813091065      -0.33610478807162802       0.35972339163534084        3.7376346979908827E-008   1.4414174226088163E-006
   154.76196561876529      -0.33823672327401699       0.35972149064650305        3.7371206455437556E-008   1.4787886290642539E-006
   165.04768355589121      -0.34049489030189889       0.35971947610253180        3.7365505400021715E-008   1.5161541344642755E-006
   175.95054456924470      -0.34288601993156009       0.35971734183021720        3.7359871163337036E-008   1.5535140056276126E-006
   187.50757724339940      -0.34541827636181194       0.35971508035547306        3.7353141718515800E-008   1.5908671473461284E-006
   199.75803187800338      -0.34809988219057475       0.35971268412742541        3.7345848553301542E-008   1.6282129958994299E-006
   212.74351379068358      -0.35093945438256691       0.35971014521619860        3.7338028129837070E-008   1.6655510240292671E-006
   226.50812461812461      -0.35394608987250881       0.35970745523357261        3.7329692553710194E-008   1.7028807165829774E-006
   241.09861209521210      -0.35712939652031866       0.35970460530211179        3.7320852491414112E-008   1.7402015690743915E-006
   256.56452882092486      -0.36049952148151204       0.35970158602629460        3.7311518435096620E-008   1.7775130875094881E-006
   272.95840055018039      -0.36406718083899969       0.35969838746219207        3.7301700533650883E-008   1.8148147880431390E-006
   290.33590458319122      -0.36784369084322882       0.35969499908535801        3.7291408380414372E-008   1.8521061964235534E-006
   308.75605885818271      -0.37184100084139393       0.35969140975683617        3.7280650858003112E-008   1.8893868472815564E-006
   328.28142238967371      -0.37607172798035426       0.35968760768718228        3.7269436040216622E-008   1.9266562833217730E-006
   348.97830773305412      -0.38054919378493712       0.35968358039838377        3.7257771144700192E-008   1.9639140544664732E-006
   370.91700619703738      -0.38528746272725845       0.35967931468354675        3.7245662529913903E-008   2.0011597169963873E-006
   394.17202656885962      -0.39030138291404037       0.35967479656421036        3.7233115728930575E-008   2.0383928327253178E-006
   418.82234816299120      -0.39560662903020205       0.35967001124513465        3.7220135512386467E-008   2.0756129682377042E-006
   444.95168905277069      -0.40121974768786428       0.35966494306640351        3.7206725972285389E-008   2.1128196942099896E-006
   472.64879039593694      -0.40715820534098585       0.35965957545266786        3.7192890619339551E-008   2.1500125848293292E-006
   502.00771781969320      -0.41344043893736698       0.35965389085935107        3.7178632487081227E-008   2.1871912173164102E-006
   533.12818088887479      -0.42008590949163227       0.35964787071562088        3.7163954237513458E-008   2.2243551715539235E-006
   566.11587174220733      -0.42711515877540152       0.35964149536392875        3.7148858264152206E-008   2.2615040298180758E-006
   601.08282404673980      -0.43454986933449985       0.35963474399590095        3.7133346789793885E-008   2.2986373766078698E-006
   638.14779348954426      -0.44241292805760185       0.35962759458435656        3.7117421957437954E-008   2.3357547985653075E-006
   677.43666109891694      -0.45072849353676314       0.35962002381121516        3.7101085913659606E-008   2.3728558844789673E-006
   719.08286076485194      -0.45952206747780089       0.35961200699104140        3.7084340884489001E-008   2.4099402253634565E-006
   763.22783241074308      -0.46882057043755232       0.35960351798996271        3.7067189244151630E-008   2.4470074146076081E-006
   810.02150235538772      -0.47865242218602877       0.35959452913967616        3.7049633577365149E-008   2.4840570481849731E-006
   859.62279249671099      -0.48904762701444604       0.35958501114625052        3.7031676735762305E-008   2.5210887249207355E-006
   912.20016004651370      -0.50003786433487174       0.35957493299340398        3.7013321889148526E-008   2.5581020468098839E-006
   967.93216964930457      -0.51165658494485544       0.35956426183992629        3.6994572572099953E-008   2.5950966193819840E-006
   1027.0080998282629      -0.52393911335989807       0.35955296291088923        3.6975432726168569E-008   2.6320720521081526E-006
   1089.6285858179588      -0.53692275664890521       0.35954099938226991        3.6955906738088648E-008   2.6690279588462412E-006
   1156.0063009670364      -0.55064692024374873       0.35952833225858777        3.6935999474010944E-008   2.7059639583202521E-006
   1226.3666790250586      -0.56515323123225225       0.35951492024313225        3.6915716309798409E-008   2.7428796746300504E-006
   1300.9486797665622      -0.58048566968660575       0.35950071960033086        3.6895063157443239E-008   2.7797747377874935E-006
   1380.0056005525560      -0.59669070862576323       0.35948568400978081        3.6874046487407379E-008   2.8166487842749009E-006
   1463.8059365857093      -0.61381746326126596       0.35946976441143658        3.6852673346958331E-008   2.8535014576218594E-006
   1552.6342927808519      -0.63191785023235780       0.35945290884141512        3.6830951374179486E-008   2.8903324089960387E-006
   1646.7923503477032      -0.65104675759810704       0.35943506225784400        3.6808888807814190E-008   2.9271412978038530E-006
   1746.5998913685655      -0.67126222642226352       0.35941616635614426        3.6786494492676702E-008   2.9639277922965299E-006
   1852.3958848506795      -0.69262564486250056       0.35939615937309899        3.6763777880659450E-008   3.0006915701771892E-006
   1964.5396379417205      -0.71520195575863299       0.35937497587901679        3.6740749027326137E-008   3.0374323192045152E-006
   2083.4120162182239      -0.73905932376462746       0.35935254707956399        3.6717325970995119E-008   3.0741496451755102E-006
   2209.4167371913172      -0.76427101642605499       0.35932879903771631        3.6693677033589281E-008   3.1108433222090996E-006
   2342.9817414227964      -0.79091402560926460       0.35930365395889363        3.6669747964203801E-008   3.1475130701733035E-006
   2484.5606459081641      -0.81906990236790378       0.35927702940132955        3.6645550218862247E-008   3.1841586203921658E-006
   2634.6342846626540      -0.84882503473410154       0.35924883801154261        3.6621096760225561E-008   3.2207797171523915E-006
   2793.7123417424132      -0.88027096284661321       0.35921898722812401        3.6596401154251130E-008   3.2573761183066428E-006
   2962.3350822469583      -0.91350471854091553       0.35918737896663372        3.6571477447374738E-008   3.2939475957540176E-006
   3141.0751871817761      -0.94862919051276628       0.35915390928538649        3.6546340127244589E-008   3.3304939358812622E-006
   3330.5396984126828      -0.98575351746635387       0.35911846803081582        3.6521004088448399E-008   3.3670149399697106E-006
   3531.3720803174438       -1.0249935118692270       0.35908093846104866        3.6495484594745242E-008   3.4035104245644558E-006
   3744.2544051364907       -1.0664721171614977       0.35904119684628477        3.6469797237128607E-008   3.4399802218015844E-006
   3969.9096694446803       -1.1103199015513994       0.35899911204450008        3.6443957887591427E-008   3.4764241796891757E-006
   4209.1042496113614       -1.1566755918572262       0.35895454505090868        3.6417982648547660E-008   3.5128421623377234E-006
   4462.6505045880431       -1.2056866512279329       0.35890734851952738        3.6391887797037178E-008   3.5492340501347607E-006
   4731.4095348633255       -1.2575099049899185       0.35885736625509124        3.6365689722467415E-008   3.5855997398572283E-006
   5016.2941069551252       -1.3123122193309604       0.35880443267347345        3.6339404855733493E-008   3.6219391447129617E-006
   5318.2717533724335       -1.3702712380484998       0.35874837222867167        3.6313049586446247E-008   3.6582521942994081E-006
   5638.3680585747798       -1.4315761831612885       0.35868899880433519        3.6286640164516248E-008   3.6945388344639242E-006
   5977.6701420892668       -1.4964287258234763       0.35862611506772701        3.6260192580483117E-008   3.7307990270444073E-006
   6337.3303506146231       -1.5650439346907050       0.35855951178394735        3.6233722418938052E-008   3.7670327494633454E-006
   6718.5701716515005       -1.6376513096847560       0.35848896708818473        3.6207244678259706E-008   3.8032399941416052E-006
   7122.6843819505912       -1.7144959099981121       0.35841424571371888        3.6180773550068671E-008   3.8394207676916741E-006
   7551.0454448676273       -1.7958392595564217       0.35833509849126621        3.6154450900866019E-008   3.8755752185925397E-006
   8005.1081715596856       -1.8819617487247913       0.35825126045543576        3.6128029613548319E-008   3.9117032482060883E-006
   8486.4146618532668       -1.9731628964413819       0.35816245110546568        3.6101654450930804E-008   3.9478049026570188E-006
   8996.5995415644629       -2.0697635082413237       0.35806837290566895        3.6075331308984424E-008   3.9838802339660028E-006
   9537.3955140583312       -2.1721074052925085       0.35796871029948651        3.6049064763695428E-008   4.0199292987296982E-006
   10110.639244901831       -2.2805633618687393       0.35786312863204528        3.6022856720500001E-008   4.0559521554501980E-006
   10718.277599595942       -2.3955272460437738       0.35775127300317222        3.5996705676726627E-008   4.0919488611269243E-006
   11362.374255571698       -2.5174243804782601       0.35763276705394192        3.5970606178434278E-008   4.1279194673053582E-006
   12045.116710906001       -2.6467121487380560       0.35750721168449312        3.5944548379167367E-008   4.1638640156845259E-006
   12768.823713560361       -2.7838828775259312       0.35737418369950374        3.5918517701872657E-008   4.1997825333863987E-006
   13535.953136373984       -2.9294670301368626       0.35723323437695670        3.5892494628016809E-008   4.2356750280144152E-006
   14349.110324556425       -3.0840367519994110       0.35708388795512502        3.5866454641398319E-008   4.2715414826558136E-006
   15211.056944029811       -3.2482104701840244       0.35692563940181654        3.5840248723527035E-008   4.3073817313793407E-006
   16124.720360671601       -3.4226551228134134       0.35675795481128619        3.5814080352391724E-008   4.3431958117317326E-006
   17093.203582311897       -3.6080936715557632       0.35658026710257962        3.5787786355911254E-008   4.3789835980876441E-006
   18093.203582311897       -3.8001843794046435       0.35639685918065600        3.5761984486809443E-008   4.4147455825744533E-006
   19093.203582311897       -3.9929436231390665       0.35621351877099799        3.5737367322360072E-008   4.4504829498968138E-006
   20093.203582311897       -4.1864169610327648       0.35603024283040330        3.5713794836625895E-008   4.4861967447334394E-006
   21093.203582311897       -4.3806464451489511       0.35584702861214612        3.5691150572262566E-008   4.5218878953057023E-006
   22093.203582311897       -4.5756709368432480       0.35566387380224213        3.5669336304655021E-008   4.5575572316103573E-006
   23093.203582311897       -4.7715265767361554       0.35548077643117015        3.5648269030053350E-008   4.5932055006404107E-006
   24093.203582311897       -4.9682471717685095       0.35529773480427768        3.5627878399729195E-008   4.6288333790401397E-006
   25093.203582311897       -5.1658645169616708       0.35511474744626531        3.5608104594612057E-008   4.6644414836347517E-006
   26093.203582311897       -5.3644086647642606       0.35493181305682198        3.5588896568794365E-008   4.7000303802035458E-006
   27093.203582311897       -5.5639081519498674       0.35474893047515976        3.5570210597436711E-008   4.7356005908009821E-006
   28093.203582311897       -5.7643901918746661       0.35456609865168198        3.5552009074553642E-008   4.7711525998755354E-006
   29093.203582311897       -5.9658808382913673       0.35438331662537015        3.5534259516394363E-008   4.8066868593919297E-006
   30093.203582311897       -6.1684051256740249       0.35420058350575040        3.5516933734062576E-008   4.8422037931259924E-006
   31093.203582311897       -6.3719871900347584       0.35401789845853171        3.5500007146055518E-008   4.8777038002720476E-006
   32093.203582311897       -6.5766503734529298       0.35383526069418630        3.5483458206008770E-008   4.9131872584780560E-006
   33093.203582311893       -6.7824162692118852       0.35365267038419984        3.5467394731869126E-008   4.9486546532099256E-006
   34093.203582311893       -6.9893086712057046       0.35347012522257604        3.5451526256832023E-008   4.9841061794667574E-006
   35093.203582311893       -7.1973484921679507       0.35328762499766270        3.5435992905559726E-008   5.0195421723723168E-006
   36093.203582311893       -7.4065565869682786       0.35310516912684048        3.5420776208784514E-008   5.0549629485811016E-006
   37093.203582311893       -7.6169534500923817       0.35292275697241393        3.5405862578845907E-008   5.0903688111599478E-006
   38093.203582311893       -7.8285592061993485       0.35274038789032824        3.5391240384321215E-008   5.1257600515442688E-006
   39093.203582311893       -8.0413936399896855       0.35255806123968669        3.5376899248322231E-008   5.1611369507925908E-006
   40093.203582311893       -8.2554762304375746       0.35237577638480672        3.5362829753656616E-008   5.1964997805462471E-006
   41093.203582311893       -8.4708261836255563       0.35219353269539966        3.5349023265796972E-008   5.2318488038120443E-006
   42093.203582311893       -8.6874624630741550       0.35201132954623854        3.5335471807058107E-008   5.2671842756191023E-006
   43093.203582311893       -8.9054038174660697       0.35182916631672584        3.5322167959914454E-008   5.3025064435790167E-006
   44093.203582311893       -9.1246688059369347       0.35164704239048655        3.5309104789590067E-008   5.3378155483686067E-006
