 #              _____________________  _______________________             #
 #              ___  __ \__  __ \_  / / /_  /___  ____/_  ___/             #
 #              __  / / /_  /_/ /  / / /_  __/_  __/  _____ \              #
 #              _  /_/ /_  _, _// /_/ / / /_ _  /___  ____/ /              #
 #              /_____/ /_/ |_| \____/  \__/ /_____/  /____/               #
 #                                                                         #
  
 #        time                      T            heat flux [W.L-2]   in    x              directions   cumulative flux
 #-----------------------------------------------------------------------------------------------

   0.0000000000000000        25.000000000000000       -0.0000000000000000        0.0000000000000000     
   1.0000000000000000        25.000000000000004       -6.0396132539608506E-013   6.0396132539608506E-013
   2.0600000000000001        24.999999999773358        1.0299956443304835E-008   1.0300560404630231E-008
   3.1836000000000002        24.999999998946535        4.1057290900425862E-008   5.1357851305056095E-008
   4.3746160000000005        24.999999997177969        9.3658698574472483E-008   1.4501654987952858E-007
   5.6370929600000004        24.999999994249674        1.6200960573087284E-007   3.0702615561040142E-007
   6.9753185376000006        24.999999990056697        2.3772582125047842E-007   5.4475197686087984E-007
   8.3938376498560014        24.999999984568245        3.1368724506819484E-007   8.5843922192907464E-007
   9.8974679088473625        24.999999977793916        3.8523008782931346E-007   1.2436693097583880E-006
   11.491315983378204        24.999999969762079        4.4996326664659126E-007   1.6936325764049793E-006
   13.180794942380897        24.999999960507605        5.0712035459810057E-007   2.2007529310030800E-006
   14.971642638923752        24.999999950064897        5.5694233225267443E-007   2.7576952632557546E-006
   16.869941197259177        24.999999938463841        6.0020166614549442E-007   3.3578969294012491E-006
   18.882137669094728        24.999999925727270        6.3790395188334504E-007   3.9958008812845938E-006
   21.015065929240414        24.999999911869370        6.7110732970832022E-007   4.6669082109929141E-006
   23.275969884994840        24.999999896894717        7.0082524672443448E-007   5.3677334577173488E-006
   25.672528078094530        24.999999880797773        7.2797572414629009E-007   6.0957091818636391E-006
   28.212879762780204        24.999999863562739        7.5336263449798914E-007   6.8490718163616285E-006
   30.905652548547017        24.999999845163678        7.7767026596120538E-007   7.6267420823228341E-006
   33.759991701459839        24.999999825564867        8.0146694614313653E-007   8.4282090284659699E-006
   36.785591203547433        24.999999804721220        8.2522255695494074E-007   9.2534315854209109E-006
   39.992726675760281        24.999999782578840        8.4931699007029217E-007   1.0102748575491203E-005
   43.392290276305900        24.999999759075546        8.7405343407453962E-007   1.0976802009565743E-005
   46.995827692884255        24.999999734141348        8.9967588934314314E-007   1.1876477898908886E-005
   50.815577354457311        24.999999707698855        9.2638003934553105E-007   1.2802857938254418E-005
   54.864511995724754        24.999999679663606        9.5432593383293330E-007   1.3757183872087351E-005
   59.156382715468240        24.999999649944257        9.8364704825826245E-007   1.4740830920345614E-005
   63.705765678396340        24.999999618442693        1.0144569273506929E-006   1.5755287847696305E-005
   68.528111619100116        24.999999585053981        1.0468564326515659E-006   1.6802144280347871E-005
   73.639798316246129        24.999999549666267        1.0809385742049924E-006   1.7883082854552864E-005
   79.058186215220900        24.999999512160581        1.1167909264031548E-006   1.8999873780956019E-005
   84.801677388134152        24.999999472410536        1.1544974398702832E-006   2.0154371220826303E-005
   90.889778031422210        24.999999430281985        1.1941444810759092E-006   2.1348515701902212E-005
   97.343164713307544        24.999999385632641        1.2358147927216121E-006   2.2584330494623824E-005
   104.18375459610600        24.999999338311607        1.2795893056249950E-006   2.3863919800248819E-005
   111.43477987187237        24.999999288158882        1.3255549902169148E-006   2.5189474790465735E-005
   119.12086666418472        24.999999235004847        1.3737939852376255E-006   2.6563268775703360E-005
   127.26811866403581        24.999999178669675        1.4243884294273808E-006   2.7987657205130741E-005
   135.90420578387796        24.999999118962737        1.4774186496424586E-006   2.9465075854773201E-005
   145.05845813091065        24.999999055681940        1.5329673885844382E-006   3.0998043243357636E-005
   154.76196561876529        24.999998988613058        1.5911095374576685E-006   3.2589152780815305E-005
   165.04768355589121        24.999998917528984        1.6519205914278241E-006   3.4241073372243129E-005
   175.95054456924470        24.999998842188962        1.7154718179313018E-006   3.5956545190174431E-005
   187.50757724339940        24.999998762359397        1.7817378505924349E-006   3.7738283040766867E-005
   199.75803187800338        24.999998677750927        1.8509270560684850E-006   3.9589210096835352E-005
   212.74351379068358        24.999998588076629        1.9230503056633093E-006   4.1512260402498662E-005
   226.50812461812461        24.999998493032521        1.9981565202442648E-006   4.3510416922742927E-005
   241.09861209521210        24.999998392296227        2.0763181751703992E-006   4.5586735097913327E-005
   256.56452882092486        24.999998285525759        2.1576367359443789E-006   4.7744371833857706E-005
   272.95840055018039        24.999998172357977        2.2422891632345450E-006   4.9986660997092251E-005
   290.33590458319122        24.999998052406731        2.3306142793444447E-006   5.2317275276436697E-005
   308.75605885818271        24.999997925260377        2.4232722140027359E-006   5.4740547490439433E-005
   328.28142238967371        24.999997790478027        2.5215651078269725E-006   5.7262112598266406E-005
   348.97830773305412        24.999997647583779        2.6280138953893579E-006   5.9890126493655764E-005
   370.91700619703738        24.999997496057148        2.7474110098069100E-006   6.2637537503462668E-005
   394.17202656885962        24.999997335316813        2.8887252767617602E-006   6.5526262780224429E-005
   418.82234816299120        24.999997164692843        3.0684212859455320E-006   6.8594684066169962E-005
   444.95168905277069        24.999996983379013        3.3162199741809664E-006   7.1910904040350929E-005
   472.64879039593694        24.999996790351844        3.6848103235342924E-006   7.5595714363885222E-005
   502.00771781969320        24.999996584234502        4.2659944554657150E-006   7.9861708819350938E-005
   533.12818088887479        24.999996363071666        5.2169231068432956E-006   8.5078631926194235E-005
   566.11587174220733        24.999996123963065        6.8019072685387965E-006   9.1880539194733033E-005
   601.08282404673980        24.999995862477832        9.4576206421947956E-006   1.0133815983692783E-004
   638.14779348954426        24.999995571735706        1.3892626427036699E-005   1.1523078626396453E-004
   677.43666109891694        24.999995240993535        2.1235944558384286E-005   1.3646673082234881E-004
   719.08286076485194        24.999994853513453        3.3253830942214784E-005   1.6972056176456360E-004
   763.22783241074308        24.999994383412528        5.2658748970202382E-005   2.2237931073476597E-004
   810.02150235538772        24.999993791102568        8.3539258923792645E-005   3.0591856965855863E-004
   859.62279249671099        24.999993016826586        1.3194347420864003E-004   4.3786204386719863E-004
   912.20016004651370        24.999991971691287        2.0665078864112724E-004   6.4451283250832581E-004
   967.93216964930457        24.999990525491818        3.2016576909654754E-004   9.6467860160487340E-004
   1027.0080998282629        24.999988490540844        4.8996282497881783E-004   1.4546414265836911E-003
   1089.6285858179588        24.999985600663575        7.3999966826221431E-004   2.1946410948459052E-003
   1156.0063009670364        24.999981484523918        1.1025004942055714E-003   3.2971415890514768E-003
   1226.3666790250586        24.999975632521373        1.6199862372090475E-003   4.9171278262605238E-003
   1300.9486797665622        24.999967356659518        2.3474995522576587E-003   7.2646273785181830E-003
   1380.0056005525560        24.999955743043618        3.3549380624720007E-003   1.0619565440990183E-002
   1463.8059365857093        24.999939597016031        4.7293734902709153E-003   1.5348938931261099E-002
   1552.6342927808519        24.999917381372413        6.5771998475483411E-003   2.1926138778809438E-002
   1646.7923503477032        24.999887148592691        9.0259252053215260E-003   3.0952063984130966E-002
   1746.5998913685655        24.999846468533061        1.2225402447327834E-002   4.3177466431458797E-002
   1852.3958848506795        24.999792353510436        1.6348288739038704E-002   5.9525755170497505E-002
   1964.5396379417205        24.999721183119419        2.1589533707881966E-002   8.1115288878379474E-002
   2083.4120162182239        24.999628631387374        2.8164725510251280E-002  0.10928001438863075     
   2209.4167371913172        24.999509599081335        3.6307160324788861E-002  0.14558717471341961     
   2342.9817414227964        24.999358153622694        4.6263577792338126E-002  0.19185075250575773     
   2484.5606459081641        24.999167479243312        5.8288556329131311E-002  0.25013930883488905     
   2634.6342846626540        24.998929839048067        7.2637654787186520E-002  0.32277696362207559     
   2793.7123417424132        24.998636550335441        8.9559462962540679E-002  0.41233642658461628     
   2962.3350822469583        24.998277973694442       0.10928680323644355       0.52162322982105980     
   3141.0751871817761        24.997843515667249       0.13202739560899343       0.65365062543005326     
   3330.5396984126828        24.997321644082724       0.15795435515585152       0.81160498058590480     
   3531.3720803174438        24.996699914614176       0.18719693021004952       0.99880191079595426     
   3744.2544051364907        24.995965006758635       0.21983190787214107        1.2186338186680954     
   3969.9096694446803        24.995102767313536       0.25587610865891003        1.4745099273270055     
   4209.1042496113614        24.994098259552512       0.29528036340785485        1.7697902907348604     
   4462.6505045880431        24.992935816657315       0.33792531362244910        2.1077156043573093     
   4731.4095348633255        24.991599098502885       0.38361930325454086        2.4913349076118503     
   5016.2941069551252        24.990071151550300       0.43209853954589750        2.9234334471577479     
   5318.2717533724335        24.988334472296607       0.48302959774883181        3.4064630449065798     
   5638.3680585747798        24.986371075375548       0.53601423587085850        3.9424772807774384     
   5977.6701420892668        24.984162567920233       0.59059637763205319        4.5330736584094913     
   6337.3303506146231        24.981690232121906       0.64627102170511808        5.1793446801146095     
   6718.5701716515005        24.978935118005243       0.70249474912348109        5.8818394292380907     
   7122.6843819505912        24.975878148272450       0.75869743386853350        6.6405368631066244     
   7551.0454448676273        24.972500236017062       0.81429476785643806        7.4548316309630627     
   8005.1081715596856        24.968782415999115       0.86870112208256223        8.3235327530456242     
   8486.4146618532668        24.964705990545934       0.92134220072253448        9.2448749537681589     
   8996.5995415644629        24.960252689658653       0.97166704739841214        10.216542001166571     
   9537.3955140583312        24.955404843508092        1.0191590623923472        11.235701063558919     
   10110.639244901831        24.950145564080806        1.0633457685568712        12.299046832115790     
   10718.277599595942        24.944458932040412        1.1038071055858365        13.402853937701627     
   11362.374255571698        24.938330184546224        1.1401820763569501        14.543036014058577     
   12045.116710906001        24.931745899643765        1.1721736278144232        15.715209641873001     
   12768.823713560361        24.924694172867746        1.1995517161270539        16.914761358000053     
   13535.953136373984        24.917164781928250        1.2221545711803115        18.136915929180365     
   14349.110324556425        24.909149335851378        1.2398882316795221        19.376804160859887     
   15211.056944029811        24.900641418223458        1.2527237350869311        20.629527895946818     
   16124.720360671601        24.891636702461717        1.2606937348584777        21.890221630805296     
   17093.203582311897        24.882133034612544        1.2638884498612055        23.154110080666502     
   18093.203582311897        24.872387124214029        1.2625869626361916        24.416697043302694     
   19093.203582311897        24.862726838972883        1.2575250425447135        25.674222085847408     
   20093.203582311897        24.853167317955894        1.2494047843692611        26.923626870216669     
   21093.203582311897        24.843720398861670        1.2388115250230667        28.162438395239736     
   22093.203582311897        24.834395376135046        1.2262322209384633        29.388670616178199     
   23093.203582311897        24.825199443540910        1.2120712862592951        30.600741902437495     
   24093.203582311897        24.816138060623359        1.1966641016656252        31.797406004103120     
   25093.203582311897        24.807215256358962        1.1802884394636235        32.977694443566740     
   26093.203582311897        24.798433880918477        1.1631740708164882        34.140868514383229     
   27093.203582311897        24.789795814489189        1.1455108133086609        35.286379327691890     
   28093.203582311897        24.781302140516487        1.1274552548949754        36.413834582586865     
   29093.203582311897        24.772953289434334        1.1091363623386739        37.522970944925540     
   30093.203582311897        24.764749157903431        1.0906601537696756        38.613631098695215     
   31093.203582311897        24.756689207713919        1.0721135884763553        39.685744687171571     
   32093.203582311897        24.748772547800638        1.0535678032033144        40.739312490374886     
   33093.203582311893        24.740997983148318        1.0350818483781408        41.774394338753027     
   34093.203582311893        24.733364081600833        1.0167038473825583        42.791098186135585     
   35093.203582311893        24.725869237373807       0.99847200395689817        43.789570190092483     
   36093.203582311893        24.718511714816891       0.98041629740418279        44.769986487496666     
   37093.203582311893        24.711289677327507       0.96256025193831340        45.732546739434980     
   38093.203582311893        24.704201208828081       0.94492235385093415        46.677469093285914     
   39093.203582311893        24.697244331845532       0.92751707379811399        47.604986167084029     
   40093.203582311893        24.690417023420110       0.91035560347371791        48.515341770557747     
   41093.203582311893        24.683717229015151       0.89344641396078095        49.408788184518528     
   42093.203582311893        24.677142874439610       0.87679570327168199        50.285583887790210     
   43093.203582311893        24.670691875881566       0.86040776885035064        51.145991656640561     
   44093.203582311893        24.664362148236101       0.84428532310038640        51.990276979740948     
   45093.203582311893        24.658151611950014       0.82842976194793727        52.818706741688885     
   46093.203582311893        24.652058198603889       0.81284139307868464        53.631548134767570     
   47093.203582311893        24.646079855434198       0.79751962914265540        54.429067763910226     
   48093.203582311893        24.640214548972605       0.78246315059971017        55.211530914509936     
   49093.203582311893        24.634460267950608       0.76767004245578341        55.979200956965720     
   50093.203582311893        24.628815025596630       0.75313790864409902        56.732338865609819     
   51093.203582311893        24.623276861430554       0.73886396748306971        57.471202833092889     
   52093.203582311893        24.617843842642124       0.72484513111291438        58.196047964205803     
   53093.203582311893        24.612514065126796       0.71107807149413549        58.907126035699939     
   54093.203582311893        24.607285654238382       0.69755927511494054        59.604685310814880     
   55093.203582311893        24.602156765308809       0.68428508829438062        60.288970399109260     
   56093.203582311893        24.597125583976776       0.67125175459473485        60.960222153703995     
   57093.203582311893        24.592190326358690       0.65845544570869652        61.618677599412692     
   58093.203582311893        24.587349239091967       0.64589228687164979        62.264569886284342     
   59093.203582311893        24.582600599272595       0.63355837773819690        62.898128264022539     
   60093.203582311893        24.577942714307554       0.62144980948453099        63.519578073507070     
   61093.203582311893        24.573373921698607       0.60956267879557646        64.129140752302646     
   62093.203582311893        24.568892588770282       0.59789309923758072        64.727033851540227     
   63093.203582311893        24.564497112352974       0.58643721047879172        65.313471062019019     
   64093.203582311893        24.560185918431873       0.57519118572120209        65.888662247740214     
   65093.203582311893        24.555957461767250       0.56415123765198405        66.452813485392198     
   66093.203582311893        24.551810225494407       0.55331362316948673        67.006127108561685     
   67093.203582311893        24.547742720707141       0.54267464706256863        67.548801755624254     
   68093.203582311893        24.543753486029729       0.53223066492108717        68.081032420545341     
   69093.203582311893        24.539841087180520       0.52197808527694167        68.603010505822283     
   70093.203582311893        24.536004116530620       0.51191337121181835        69.114923877034101     
   71093.203582311893        24.532241192659569       0.50203304148901384        69.616956918523115     
   72093.203582311893        24.528550959910049       0.49233367128604033        70.109290589809149     
   73093.203582311893        24.524932087943284       0.48281189262041824        70.592102482429567     
   74093.203582311893        24.521383271296706       0.47346439451516165        71.065566876944729     
   75093.203582311893        24.517903228944608       0.46428792292751087        71.529854799872240     
   76093.203582311893        24.514490703862435       0.45527928054720934        71.985134080419442     
   77093.203582311893        24.511144462595951       0.44643532641178030        72.431569406831215     
   78093.203582311893        24.507863294835470       0.43775297542637748        72.869322382257593     
   79093.203582311893        24.504646012995693       0.42922919779726942        73.298551580054863     
   80093.203582311893        24.501491451801147       0.42086101838378898        73.719412598438652     
