 #              _____________________  _______________________             #
 #              ___  __ \__  __ \_  / / /_  /___  ____/_  ___/             #
 #              __  / / /_  /_/ /  / / /_  __/_  __/  _____ \              #
 #              _  /_/ /_  _, _// /_/ / / /_ _  /___  ____/ /              #
 #              /_____/ /_/ |_| \____/  \__/ /_____/  /____/               #
 #                                                                         #
  
 #        time                      T            heat flux [W.L-2]   in    x              directions   cumulative flux
 #-----------------------------------------------------------------------------------------------

   0.0000000000000000        25.000000000000000       -0.0000000000000000        0.0000000000000000     
   1.0000000000000000        24.999055301410507       0.15966145204259860       0.15966145204259860     
   2.0600000000000001        24.998067579700546       0.32554782807419941       0.48520928011679798     
   3.1836000000000002        24.997035702783926       0.49770053225156324       0.98290981236836128     
   4.3746160000000005        24.995958510156331       0.67613942711602648        1.6590492394843879     
   5.6370929600000004        24.994834908477515       0.86085632019372504        2.5199055596781128     
   6.9753185376000006        24.993663875144343        1.0518128154623687        3.5717183751404815     
   8.3938376498560014        24.992444467821539        1.2489375290532923        4.8206559041937735     
   9.8974679088473625        24.991175835168832        1.4521232534887560        6.2727791576825300     
   11.491315983378204        24.989857227895858        1.6612241754453179        7.9340033331278477     
   13.180794942380897        24.988488009811444        1.8760532119600610        9.8100565450879085     
   14.971642638923752        24.987067668617119        2.0963795314169769        11.906436076504885     
   16.869941197259177        24.985595826194885        2.3219263321458055        14.228362408650691     
   18.882137669094728        24.984072248121191        2.5523689581357778        16.780731366786469     
   21.015065929240414        24.982496852116807        2.7873334375156462        19.568064804302114     
   23.275969884994840        24.980869715122100        3.0263955340934219        22.594460338395535     
   25.672528078094530        24.979191078671001        3.2690804052002034        25.863540743595738     
   28.212879762780204        24.977461352228101        3.5148629594569383        29.378403703052676     
   30.905652548547017        24.975681114153055        3.7631690055450986        33.141572708597778     
   33.759991701459839        24.973851109967782        4.0133772767925500        37.154949985390331     
   36.785591203547433        24.971972247626429        4.2648224059959325        41.419772391386260     
   39.992726675760281        24.970045589527903        4.5167989097547299        45.936571301140987     
   43.392290276305900        24.968072341067668        4.7685662213758162        50.705137522516800     
   46.995827692884255        24.966053835600079        5.0193547859527099        55.724492308469507     
   50.815577354457311        24.963991515775550        5.2683732004682282        60.992865508937733     
   54.864511995724754        24.961886911327575        5.5148163462092326        66.507681855146970     
   59.156382715468240        24.959741613510843        5.7578744210450896        72.265556276192058     
   63.705765678396340        24.957557246530779        5.9967427364063344        78.262299012598390     
   68.528111619100116        24.955335436451605        6.2306320997035716        84.492931112301960     
   73.639798316246129        24.953077778218539        6.4587795594837454        90.951710671785705     
   79.058186215220900        24.950785801572003        6.6804592503783349        97.632169922164039     
   84.801677388134152        24.948460936759258        6.8949930405157227        104.52716296267977     
   90.889778031422210        24.946104481051396        7.1017606586867226        111.62892362136650     
   97.343164713307544        24.943717567141473        7.3002089651026063        118.92913258646911     
   104.18375459610600        24.941301134523346        7.4898600307343282        126.41899261720344     
   111.43477987187237        24.938855904922082        7.6703177083090699        134.08931032551251     
   119.12086666418472        24.936382362760380        7.8412724143226162        141.93058273983513     
   127.26811866403581        24.933880741498896        8.0025038962107615        149.93308663604589     
   135.90420578387796        24.931351016483834        8.1538818309003531        158.08696846694625     
   145.05845813091065        24.928792904679284        8.2953641877358848        166.38233265468213     
   154.76196561876529        24.926205871366797        8.4269933859941943        174.80932604067632     
   165.04768355589121        24.923589143577004        8.5488903791690447        183.35821641984538     
   175.95054456924470        24.920941218474912        8.6613293320536684        192.01954575189905     
   187.50757724339940        24.918261420603841        8.7644763525293996        200.78402210442846     
   199.75803187800338        24.915548395429088        8.8586365764404746        209.64265868086892     
   212.74351379068358        24.912800655568194        8.9441552094742534        218.58681389034317     
   226.50812461812461        24.910016614380691        9.0214062449118089        227.60822013525498     
   241.09861209521210        24.907194619650436        9.0907814481717892        236.69900158342676     
   256.56452882092486        24.904332986009464        9.1526800367970225        245.85168162022379     
   272.95840055018039        24.901430024923044        9.2074994205267231        255.05918104075050     
   290.33590458319122        24.898484071295709        9.2556272799879764        264.31480832073851     
   308.75605885818271        24.895493506045625        9.2974351626944980        273.61224348343302     
   328.28142238967371        24.892456774304890        9.3332736704249015        282.94551715385791     
   348.97830773305412        24.889372399207751        9.3634692118253238        292.30898636568321     
   370.91700619703738        24.886238991500353        9.3883222068088568        301.69730857249209     
   394.17202656885962        24.883055255424729        9.4081065612221249        311.10541513371419     
   418.82234816299120        24.879819991481313        9.4230701854131294        320.52848531912730     
   444.95168905277069        24.876532096754637        9.4334363096735085        329.96192162880078     
   472.64879039593694        24.873190563498596        9.4394053514175891        339.40132698021836     
   502.00771781969320        24.869794476632098        9.4411571092923463        348.84248408951072     
   533.12818088887479        24.866343010707777        9.4388530930681380        358.28133718257885     
   566.11587174220733        24.862835426803279        9.4326388389540394        367.71397602153291     
   601.08282404673980        24.859271069663272        9.4226461025916830        377.13662212412459     
   638.14779348954426        24.855649365304583        9.4089948617330332        386.54561698585763     
   677.43666109891694        24.851969819196594        9.3917950943635287        395.93741208022118     
   719.08286076485194        24.848232015050158        9.3711483242149551        405.30856040443615     
   763.22783241074308        24.844435614191880        9.3471489438454043        414.65570934828156     
   810.02150235538772        24.840580355464986        9.3198853365143393        423.97559468479591     
   859.62279249671099        24.836666055579951        9.2894408233334786        433.26503550812936     
   912.20016004651370        24.832692609832698        9.2558944630607627        442.52092997119013     
   967.93216964930457        24.828659993110922        9.2193217301985371        451.74025170138867     
   1027.0080998282629        24.824568261116742        9.1797950937823742        460.92004679517106     
   1089.6285858179588        24.820417551743244        9.1373845155519291        470.05743131072302     
   1156.0063009670364        24.816208086551669        9.0921578825164957        479.14958919323954     
   1226.3666790250586        24.811940172304404        9.0441813857390159        488.19377057897856     
   1300.9486797665622        24.807614202515534        8.9935198545284152        497.18729043350697     
   1380.0056005525560        24.803230658986063        8.9402370530921189        506.12752748659909     
   1463.8059365857093        24.798790113295134        8.8843959451109740        515.01192343171010     
   1552.6342927808519        24.794293228221139        8.8260589304842370        523.83798236219434     
   1646.7923503477032        24.789740759069268        8.7652880575344057        532.60327041972869     
   1746.5998913685655        24.785133554883302        8.7021452133269079        541.30541563305565     
   1852.3958848506795        24.780472559521161        8.6366922941695918        549.94210792722527     
   1964.5396379417205        24.775758812574285        8.5689913579976036        558.51109928522283     
   2083.4120162182239        24.770996780592505        8.4987205234015235        567.00981980862434     
   2209.4167371913172        24.766183371221139        8.4265420560935240        575.43636186471781     
   2342.9817414227964        24.761320564351347        8.3523745110940624        583.78873637581182     
   2484.5606459081641        24.756410044539116        8.2762335468928967        592.06496992270468     
   2634.6342846626540        24.751453452214697        8.1981672003102020        600.26313712301487     
   2793.7123417424132        24.746452471623023        8.1182347514793847        608.38137187449422     
   2962.3350822469583        24.741408862110180        8.0364998631973279        616.41787173769160     
   3141.0751871817761        24.736324469400351        7.9530283323926829        624.37090007008430     
   3330.5396984126828        24.731201229416211        7.8678873287492754        632.23878739883355     
   3531.3720803174438        24.726041168987862        7.7811451162503351        640.01993251508384     
   3744.2544051364907        24.720846404970466        7.6928709305501917        647.71280344563399     
   3969.9096694446803        24.715619142268100        7.6031349000407582        655.31593834567479     
   4209.1042496113614        24.710361670835745        7.5120079668835809        662.82794631255842     
   4462.6505045880431        24.705076361492299        7.4195617855358913        670.24750809809427     
   4731.4095348633255        24.699765660182361        7.3258685817377094        677.57337667983199     
   5016.2941069551252        24.694432080121693        7.2310009547869862        684.80437763461896     
   5318.2717533724335        24.689078191033776        7.1350316033912913        691.93940923801028     
   5638.3680585747798        24.683706604436441        7.0380329524571588        698.97744219046740     
   5977.6701420892668        24.678319953687520        6.9400766553305298        705.91751884579799     
   6337.3303506146231        24.672920867279320        6.8412329445624858        712.75875179036052     
   6718.5701716515005        24.667511933731731        6.7415698047358967        719.50032159509647     
   7122.6843819505912        24.662095656428221        6.6411519443939975        726.14147353949045     
   7551.0454448676273        24.656667314877705        6.5405950155579555        732.68206855504843     
   8005.1081715596856        24.651239019629308        6.4389659693090744        739.12103452435747     
   8486.4146618532668        24.645810357224242        6.3366877161756410        745.45772224053314     
   8996.5995415644629        24.640382257829454        6.2338487972515413        751.69157103778468     
   9537.3955140583312        24.634955492480788        6.1304835672823135        757.82205460506702     
   10110.639244901831        24.629530315831090        6.0266063268726757        763.84866093193966     
   10718.277599595942        24.624106293964303        5.9222146448928772        769.77087557683251     
   11362.374255571698        24.618682175729802        5.8172885026733514        775.58816407950587     
   12045.116710906001        24.613255786839424        5.7117889865063578        781.29995306601222     
   12768.823713560361        24.607823947876884        5.6056572474500346        786.90561031346226     
   13535.953136373984        24.602382422390246        5.4988139836030880        792.40442429706536     
   14349.110324556425        24.596925902196141        5.3911596004450457        797.79558389751037     
   15211.056944029811        24.591457066210950        5.2820293026103782        803.07761320012071     
   16124.720360671601        24.585955818037625        5.1722851451088259        808.24989834522955     
   17093.203582311897        24.580417270540700        5.0613473389832775        813.31124568421285     
   18093.203582311897        24.574971158763859        4.9518253608202611        818.26307104503314     
   19093.203582311897        24.569764549174035        4.8467483822420787        823.10981942727517     
   20093.203582311897        24.564770251614917        4.7456097462303104        827.85542917350551     
   21093.203582311897        24.559965157070550        4.6479983680416801        832.50342754154724     
   22093.203582311897        24.555329826610972        4.5535691845901347        837.05699672613741     
   23093.203582311897        24.550847883751690        4.4620310262632366        841.51902775240069     
   24093.203582311897        24.546505500083338        4.3731374278601685        845.89216518026080     
   25093.203582311897        24.542290966921925        4.2866791000761104        850.17884428033688     
   26093.203582311897        24.538194339691422        4.2024777006165657        854.38132198095343     
   27093.203582311897        24.534207142826826        4.1203806694456411        858.50170265039912     
   28093.203582311897        24.530322124851207        4.0402569425697585        862.54195959296885     
   29093.203582311897        24.526533055025016        3.9619933930614653        866.50395298603030     
   30093.203582311897        24.522834554450959        3.8854918747212923        870.38944486075161     
   31093.203582311897        24.519221955751203        3.8106667655967255        874.20011162634830     
   32093.203582311897        24.515691186449089        3.7374429262444377        877.93755455259270     
   33093.203582311893        24.512230027849554        3.6662466997700673        881.60380125236281     
   34093.203582311893        24.508849300346462        3.5960255287005762        885.19982678106339     
   35093.203582311893        24.505542236283983        3.5271996931610841        888.72702647422443     
   36093.203582311893        24.502305574302000        3.4597520436298947        892.18677851785435     
   37093.203582311893        24.499136790595944        3.3936410599860491        895.58041957784042     
   38093.203582311893        24.496033706611954        3.3288266901724808        898.90924626801291     
   39093.203582311893        24.492994375152076        3.2652719933579601        902.17451826137085     
   40093.203582311893        24.490017025789726        3.2029428712045029        905.37746113257538     
   41093.203582311893        24.487100030736372        3.1418076624112219        908.51926879498660     
   42093.203582311893        24.484241880462001        3.0818367837480993        911.60110557873475     
   43093.203582311893        24.481441165066851        3.0230024313856392        914.62410801012038     
   44093.203582311893        24.478696559528835        2.9652783345553475        917.58938634467575     
   45093.203582311893        24.476006811780657        2.9086395520902615        920.49802589676597     
   46093.203582311893        24.473370732955118        2.8530623037862641        923.35108820055223     
   47093.203582311893        24.470787189340417        2.7985238301459576        926.14961203069822     
   48093.203582311893        24.468255095707956        2.7450022753243153        928.89461430602250     
   49093.203582311893        24.465773409753847        2.6924765891613212        931.58709089518379     
   50093.203582311893        24.463341127452580        2.6409264449327075        934.22801734011648     
   51093.203582311893        24.460957279160226        2.5903321701063908        936.81834951022290     
   52093.203582311893        24.458620926335833        2.5406746878645214        939.35902419808747     
   53093.203582311893        24.456331158775029        2.4919354675563077        941.85095966564381     
   54093.203582311893        24.454087092267926        2.4440964825874167        944.29505614823120     
   55093.203582311893        24.451887866609344        2.3971401744691767        946.69219632270040     
   56093.203582311893        24.449732643902035        2.3510494220346678        949.04324574473503     
   57093.203582311893        24.447620607104241        2.3058075149175732        951.34905325965258     
   58093.203582311893        24.445550958779975        2.2613981306258051        953.61045139027840     
   59093.203582311893        24.443522920019252        2.2178053146113879        955.82825670488978     
   60093.203582311893        24.441535729499797        2.1750134628189937        958.00327016770882     
   61093.203582311893        24.439588642667125        2.1330073063483450        960.13627747405712     
   62093.203582311893        24.437680931013912        2.0917718978717286        962.22804937192882     
   63093.203582311893        24.435811881441975        2.0512925995167191        964.27934197144555     
   64093.203582311893        24.433980795694698        2.0115550720015190        966.29089704344710     
   65093.203582311893        24.432186989847299        1.9725452648145472        968.26344230826169     
   66093.203582311893        24.430429793847239        1.9342494072824559        970.19769171554412     
   67093.203582311893        24.428708551095902        1.8966540003882655        972.09434571593238     
   68093.203582311893        24.427022618065980        1.8597458092194314        973.95409152515185     
   69093.203582311893        24.425371363948667        1.8235118559854497        975.77760338113728     
   70093.203582311893        24.423754170326539        1.7879394134769540        977.56554279461420     
   71093.203582311893        24.422170430868498        1.7530159989403400        979.31855879355453     
   72093.203582311893        24.420619551043355        1.7187293683002720        981.03728816185480     
   73093.203582311893        24.419100947849707        1.6850675106775255        982.72235567253233     
   74093.203582311893        24.417614049559983        1.6520186431798207        984.37437431571220     
   75093.203582311893        24.416158295476944        1.6195712059191421        985.99394552163130     
   76093.203582311893        24.414733135700555        1.5877138572362157        987.58165937886747     
   77093.203582311893        24.413338030904978        1.5564354691079871        989.13809484797548     
   78093.203582311893        24.411972452123649        1.5257251227193778        990.66381997069482     
   79093.203582311893        24.410635880542067        1.4955721041830103        992.15939207487781     
   80093.203582311893        24.409327807297480        1.4659659003966383        993.62535797527448     
