 #              _____________________  _______________________             #
 #              ___  __ \__  __ \_  / / /_  /___  ____/_  ___/             #
 #              __  / / /_  /_/ /  / / /_  __/_  __/  _____ \              #
 #              _  /_/ /_  _, _// /_/ / / /_ _  /___  ____/ /              #
 #              /_____/ /_/ |_| \____/  \__/ /_____/  /____/               #
 #                                                                         #
  
 #        time                      h  [L]                   theta [-]       Darcian flow [L.T^{-1}]   in    x              directions   cumulative flux
 #-----------------------------------------------------------------------------------------------

   0.0000000000000000      -0.20000000000000001       0.35984249177530825        1.2548996820743664E-024   1.2548996820743664E-024
   1.0000000000000000      -0.20003780055610976       0.35984245944170140        7.4902165890236257E-010   7.4902165890236381E-010
   2.0600000000000001      -0.20013571346145090       0.35984237568722716        2.3260313056701702E-009   3.0750529645725341E-009
   3.1836000000000002      -0.20029303990848671       0.35984224110348806        4.3626451314504393E-009   7.4376980960229734E-009
   4.3746160000000005      -0.20049937030365150       0.35984206458650858        6.4953594282137104E-009   1.3933057524236683E-008
   5.6370929600000004      -0.20074425670230053       0.35984185506523503        8.5052404229475416E-009   2.2438297947184225E-008
   6.9753185376000006      -0.20102026539989892       0.35984161889097888        1.0292167630055708E-008   3.2730465577239932E-008
   8.3938376498560014      -0.20132297369683119       0.35984135983984028        1.1824995202176711E-008   4.4555460779416642E-008
   9.8974679088473625      -0.20165015938846309       0.35984107980547630        1.3107347195450883E-008   5.7662807974867523E-008
   11.491315983378204      -0.20200102360983846       0.35984077946344334        1.4159007045597771E-008   7.1821815020465292E-008
   13.180794942380897      -0.20237563864461774       0.35984045874324178        1.5006475303937108E-008   8.6828290324402404E-008
   14.971642638923752      -0.20277460246421317       0.35984011712361347        1.5678169656677659E-008   1.0250645998108007E-007
   16.869941197259177      -0.20319883900015512       0.35983975380321892        1.6201911194344827E-008   1.1870837117542489E-007
   18.882137669094728      -0.20364948990272941       0.35983936779306430        1.6603581249644773E-008   1.3531195242506967E-007
   21.015065929240414      -0.20412785967462130       0.35983895796325921        1.6906424220710381E-008   1.5221837664578004E-007
   23.275969884994840      -0.20463539017417576       0.35983852306463016        1.7130738036639749E-008   1.6934911468241980E-007
   25.672528078094530      -0.20517365043750627       0.35983806173720545        1.7293813986594853E-008   1.8664292866901464E-007
   28.212879762780204      -0.20574433409768184       0.35983757251217235        1.7410043289204678E-008   2.0405297195821932E-007
   30.905652548547017      -0.20634926042345014       0.35983705381070941        1.7491134669728868E-008   2.2154410662794820E-007
   33.759991701459839      -0.20699037708235535       0.35983650394131100        1.7546401220182164E-008   2.3909050784813038E-007
   36.785591203547433      -0.20766976382185207       0.35983592109629192        1.7583083336161138E-008   2.5667359118429154E-007
   39.992726675760281      -0.20838963679138603       0.35983530334770569        1.7606681014811206E-008   2.7428027219910274E-007
   43.392290276305900      -0.20915235346041572       0.35983464864271103        1.7621274723939880E-008   2.9190154692304262E-007
   46.995827692884255      -0.20996041817068087       0.35983395479834829        1.7629819823077649E-008   3.0953136674612027E-007
   50.815577354457311      -0.21081648837586020       0.35983321949567693        1.7634405024439807E-008   3.2716577177056006E-007
   54.864511995724754      -0.21172338160939438       0.35983244027323197        1.7636470328174333E-008   3.4480224209873439E-007
   59.156382715468240      -0.21268408320192608       0.35983161451977524        1.7636983958921932E-008   3.6243922605765632E-007
   63.705765678396340      -0.21370175475268532       0.35983073946633121        1.7636580887837968E-008   3.8007580694549431E-007
   68.528111619100116      -0.21477974334768796       0.35982981217750665        1.7635667503449179E-008   3.9771147444894348E-007
   73.639798316246129      -0.21592159151243179       0.35982882954209527        1.7634497987798471E-008   4.1534597243674196E-007
   79.058186215220900      -0.21713104788694643       0.35982778826297074        1.7633228143745021E-008   4.3297920058048699E-007
   84.801677388134152      -0.21841207861514730       0.35982668484626512        1.7631952034135434E-008   4.5061115261462244E-007
   90.889778031422210      -0.21976887944694851       0.35982551558982367        1.7630726062502769E-008   4.6824187867712523E-007
   97.343164713307544      -0.22120588855915616       0.35982427657092109        1.7629584247723113E-008   4.8587146292484839E-007
   104.18375459610600      -0.22272780010881885       0.35982296363321548        1.7628547567623694E-008   5.0350001049247211E-007
   111.43477987187237      -0.22433957853987260       0.35982157237290957        1.7627629464771427E-008   5.2112763995724355E-007
   119.12086666418472      -0.22604647367025971       0.35982009812408294        1.7626838967026140E-008   5.3875447892426972E-007
   127.26811866403581      -0.22785403659225001       0.35981853594315322        1.7626182385080888E-008   5.5638066130935065E-007
   135.90420578387796      -0.22976813642350438       0.35981688059241818        1.7625664197242333E-008   5.7400632550659294E-007
   145.05845813091065      -0.23179497795071910       0.35981512652262793        1.7625287491056822E-008   5.9163161299764979E-007
   154.76196561876529      -0.23394112021163957       0.35981326785452933        1.7625054176342811E-008   6.0925666717399261E-007
   165.04768355589121      -0.23621349606506359       0.35981129835932263        1.7624965088936427E-008   6.2688163226292904E-007
   175.95054456924470      -0.23861872263017120       0.35980921205422417        1.7624487863679665E-008   6.4450612012660866E-007
   187.50757724339940      -0.24116521696006213       0.35980700136457416        1.7624610258659658E-008   6.6213073038526835E-007
   199.75803187800338      -0.24386112414129038       0.35980465891643032        1.7624950176100103E-008   6.7975568056136843E-007
   212.74351379068358      -0.24671507873756640       0.35980217687307492        1.7625447123227178E-008   6.9738112768459556E-007
   226.50812461812461      -0.24973620728905743       0.35979954692880656        1.7626087004136886E-008   7.1500721468873250E-007
   241.09861209521210      -0.25293415173622302       0.35979676028424529        1.7626862970144761E-008   7.3263407765887721E-007
   256.56452882092486      -0.25631909726276814       0.35979380761742152        1.7627769333609171E-008   7.5026184699248642E-007
   272.95840055018039      -0.25990180203712593       0.35979067905281004        1.7628800274430596E-008   7.6789064726691696E-007
   290.33590458319122      -0.26369362862201295       0.35978736412848206        1.7629949511964428E-008   7.8552059677888142E-007
   308.75605885818271      -0.26770657711350776       0.35978385176129540        1.7631210235990762E-008   8.0315180701487218E-007
   328.28142238967371      -0.27195332010838641       0.35978013021000782        1.7632575115070736E-008   8.2078438212994294E-007
   348.97830773305412      -0.27644723960737427       0.35977618703619402        1.7634036328403504E-008   8.3841841845834646E-007
   370.91700619703738      -0.28120246596917914       0.35977200906283580        1.7635585606562136E-008   8.5605400406490862E-007
   394.17202656885962      -0.28623391903703599       0.35976758233045097        1.7637214277762257E-008   8.7369121834267089E-007
   418.82234816299120      -0.29155735156743728       0.35976289205062068        1.7638913321067913E-008   8.9133013166373880E-007
   444.95168905277069      -0.29718939509898190       0.35975792255676292        1.7640673428835203E-008   9.0897080509257401E-007
   472.64879039593694      -0.30314760840825727       0.35975265725199856        1.7642485079537366E-008   9.2661329017211136E-007
   502.00771781969320      -0.30945052870945461       0.35974707855394344        1.7644338623010611E-008   9.4425762879512194E-007
   533.12818088887479      -0.31611772576510933       0.35974116783625282        1.7646224377396595E-008   9.6190385317251854E-007
   566.11587174220733      -0.32316985908692886       0.35973490536673569        1.7648132736829642E-008   9.7955198590934822E-007
   601.08282404673980      -0.33062873841877072       0.35972827024184556        1.7650054286568981E-008   9.9720204019591718E-007
   638.14779348954426      -0.33851738770805573       0.35972124031734409        1.7651979921079510E-008   1.0148540201169967E-006
   677.43666109891694      -0.34686011278808909       0.35971379213492000        1.7653900958635095E-008   1.0325079210756319E-006
   719.08286076485194      -0.35568257301176809       0.35970590084453391        1.7655809244930179E-008   1.0501637303205620E-006
   763.22783241074308      -0.36501185709735562       0.35969754012224303        1.7657697237397952E-008   1.0678214275579600E-006
   810.02150235538772      -0.37487656346951509       0.35968868208324523        1.7659558061238820E-008   1.0854809856191988E-006
   859.62279249671099      -0.38530688540415886       0.35967929718985919        1.7661385529390479E-008   1.1031423711485894E-006
   912.20016004651370      -0.39633470131313642       0.35966935415414303        1.7663174119137285E-008   1.1208055452677266E-006
   967.93216964930457      -0.40799367053569785       0.35965881983482600        1.7664918900777297E-008   1.1384704641685039E-006
   1027.0080998282629      -0.42031933503682184       0.35964765912820768        1.7666615416353968E-008   1.1561370795848578E-006
   1089.6285858179588      -0.43334922744844168       0.35963583485265355        1.7668259509367130E-008   1.1738053390942249E-006
   1156.0063009670364      -0.44712298592908684       0.35962330762628741        1.7669847110538501E-008   1.1914751862047634E-006
   1226.3666790250586      -0.46168247635890181       0.35961003573745498        1.7671373987566178E-008   1.2091465601923295E-006
   1300.9486797665622      -0.47707192243222180       0.35959597500750273        1.7672835469938520E-008   1.2268193956622680E-006
   1380.0056005525560      -0.49333804425829475       0.35958107864538635        1.7674226162418686E-008   1.2444936218246867E-006
   1463.8059365857093      -0.51053020613261846       0.35956529709359081        1.7675539661843412E-008   1.2621691614865300E-006
   1552.6342927808519      -0.52870057419789807       0.35954857786481209        1.7676768292848399E-008   1.2798459297793784E-006
   1646.7923503477032      -0.54790428477480468       0.35953086536881557        1.7677902876397525E-008   1.2975238326557760E-006
   1746.5998913685655      -0.56819962420908898       0.35951210072885004        1.7678932544716913E-008   1.3152027652004930E-006
   1852.3958848506795      -0.58964822115567728       0.35949222158695998        1.7679844612437849E-008   1.3328826098129309E-006
   1964.5396379417205      -0.61231525230027217       0.35947116189749639        1.7680624511131445E-008   1.3505632343240624E-006
   2083.4120162182239      -0.63626906035126984       0.35944885226968354        1.7680987655982790E-008   1.3682442219800452E-006
   2209.4167371913172      -0.66158317108253240       0.35942521807723116        1.7681458055442775E-008   1.3859256800354878E-006
   2342.9817414227964      -0.68833478445703655       0.35940018084932379        1.7681757954190600E-008   1.4036074379896784E-006
   2484.5606459081641      -0.71660563560335178       0.35937365746190131        1.7681850679376005E-008   1.4212892886690543E-006
   2634.6342846626540      -0.74648228041308640       0.35934555986550665        1.7681712487123523E-008   1.4389710011561779E-006
   2793.7123417424132      -0.77805640844946822       0.35931579479093728        1.7681319492912679E-008   1.4566523206490907E-006
   2962.3350822469583      -0.81142517957664839       0.35928426343672509        1.7680647165464407E-008   1.4743329678145550E-006
   3141.0751871817761      -0.84669158623056917       0.35925086113745758        1.7679670633588153E-008   1.4920126384481431E-006
   3330.5396984126828      -0.88396484356564187       0.35921547701178613        1.7678365038297515E-008   1.5096910034864406E-006
   3531.3720803174438      -0.92336080994752212       0.35917799358889685        1.7676705879670512E-008   1.5273677093661112E-006
   3744.2544051364907      -0.96500244051279316       0.35913828641215023        1.7674669350522994E-008   1.5450423787166342E-006
   3969.9096694446803       -1.0090202767946987       0.35909622361853366        1.7672232652345947E-008   1.5627146113689801E-006
   4209.1042496113614       -1.0555529757204625       0.35905166549250600        1.7669374290029095E-008   1.5803839856590092E-006
   4462.6505045880431       -1.1047478816307035       0.35900446399274633        1.7666074343794005E-008   1.5980500600028031E-006
   4731.4095348633255       -1.1567616453581071       0.35895446225025385        1.7662314717607964E-008   1.6157123747204111E-006
   5016.2941069551252       -1.2117608948400840       0.35890149403617383        1.7658079365381678E-008   1.6333704540857929E-006
   5318.2717533724335       -1.2699229622370052       0.35884538319764597        1.7653354496522213E-008   1.6510238085823152E-006
   5638.3680585747798       -1.3314366730907232       0.35878594305989359        1.7648128760420690E-008   1.6686719373427357E-006
   5977.6701420892668       -1.3965032037032710       0.35872297579267359        1.7642393411092290E-008   1.6863143307538279E-006
   6337.3303506146231       -1.4653370136477706       0.35865627173911385        1.7636142449198472E-008   1.7039504732030263E-006
   6718.5701716515005       -1.5381668611606594       0.35858560870484812        1.7629372736385488E-008   1.7215798459394119E-006
   7122.6843819505912       -1.6152369101146751       0.35851075120524578        1.7622084076393165E-008   1.7392019300158050E-006
   7551.0454448676273       -1.6968079468502291       0.35843144966014373        1.7614280983230453E-008   1.7568162109990355E-006
   8005.1081715596856       -1.7831586468599556       0.35834743960269677        1.7605960666496424E-008   1.7744221716655320E-006
   8486.4146618532668       -1.8745871057215413       0.35825844070332247        1.7597139823897821E-008   1.7920193114894298E-006
   8996.5995415644629       -1.9714123807720527       0.35816415586607536        1.7587829374233473E-008   1.8096071408636632E-006
   9537.3955140583312       -2.0739762316700681       0.35806427022714610        1.7578042847496189E-008   1.8271851837111593E-006
   10110.639244901831       -2.1826450330349827       0.35795845009589300        1.7567796175186881E-008   1.8447529798863462E-006
   10718.277599595942       -2.2978118795657099       0.35784634183515185        1.7557107174279117E-008   1.8623100870606253E-006
   11362.374255571698       -2.4198989072861954       0.35772757067692840        1.7545995030492715E-008   1.8798560820911180E-006
   12045.116710906001       -2.5493598575435081       0.35760173946960289        1.7534479747451605E-008   1.8973905618385696E-006
   12768.823713560361       -2.6866829140800101       0.35746842735257434        1.7522581564112898E-008   1.9149131434026824E-006
   13535.953136373984       -2.8323938479265558       0.35732718835391397        1.7510320360885754E-008   1.9324234637635680E-006
   14349.110324556425       -2.9870595100533488       0.35717754990615252        1.7497715080402903E-008   1.9499211788439710E-006
   15211.056944029811       -3.1512916067743681       0.35701901138182934        1.7484769035439915E-008   1.9674059478794109E-006
   16124.720360671601       -3.3257514181390002       0.35685104205697377        1.7471529318046837E-008   1.9848774771974575E-006
   17093.203582311897       -3.5111541913472175       0.35667307977967283        1.7457990115627902E-008   2.0023354673130853E-006
   18093.203582311897       -3.7031529990639087       0.35648941904739517        1.7444492019761506E-008   2.0197799593328466E-006
   19093.203582311897       -3.8957654983138643       0.35630585795480602        1.7431436704000819E-008   2.0372113960368476E-006
   20093.203582311897       -4.0890381263353577       0.35612239412819591        1.7418813875080573E-008   2.0546302099119284E-006
   21093.203582311897       -4.2830138167993317       0.35593902516626008        1.7406597919631310E-008   2.0720368078315598E-006
   22093.203582311897       -4.4777322812020639       0.35575574886791850        1.7394763596792057E-008   2.0894315714283519E-006
   23093.203582311897       -4.6732304679553707       0.35557256320057568        1.7383286922816769E-008   2.1068148583511686E-006
   24093.203582311897       -4.8695429433039257       0.35538946627315143        1.7372145466973927E-008   2.1241870038181427E-006
   25093.203582311897       -5.0667022096469578       0.35520645631338166        1.7361318475241548E-008   2.1415483222933842E-006
   26093.203582311897       -5.2647389733071153       0.35502353164886197        1.7350786890192716E-008   2.1588991091835769E-006
   27093.203582311897       -5.4636823711682769       0.35484069069131019        1.7340533304461969E-008   2.1762396424880388E-006
   28093.203582311897       -5.6635601635971842       0.35465793192357808        1.7330541874625969E-008   2.1935701843626647E-006
   29093.203582311897       -5.8643988995512819       0.35447525388898404        1.7320798212080740E-008   2.2108909825747453E-006
   30093.203582311897       -6.0662240586049752       0.35429265518259101        1.7311289263509777E-008   2.2282022718382551E-006
   31093.203582311897       -6.2690601737105904       0.35411013444410544        1.7302003188671155E-008   2.2455042750269262E-006
   32093.203582311897       -6.4729309377923805       0.35392769035212140        1.7292929240675408E-008   2.2627972042676016E-006
   33093.203582311893       -6.6778597405299491       0.35374532122562435        1.7284095223850570E-008   2.2800812994914523E-006
   34093.203582311893       -6.8838682970732767       0.35356302631326153        1.7275410657000152E-008   2.2973567101484524E-006
   35093.203582311893       -7.0909783226564036       0.35338080435857272        1.7266911635142997E-008   2.3146236217835955E-006
   36093.203582311893       -7.2992110002708683       0.35319865413199453        1.7258591952429619E-008   2.3318822137360253E-006
   37093.203582311893       -7.5085870300643300       0.35301657443465762        1.7250444331613791E-008   2.3491326580676392E-006
   38093.203582311893       -7.7191266810518453       0.35283456409503261        1.7242462224814153E-008   2.3663751202924532E-006
   39093.203582311893       -7.9308498372253817       0.35265262196615305        1.7234639664886482E-008   2.3836097599573398E-006
   40093.203582311893       -8.1437760387363429       0.35247074692337493        1.7226971155573079E-008   2.4008367311129128E-006
   41093.203582311893       -8.3579245186538316       0.35228893786269694        1.7219451601098614E-008   2.4180561827140114E-006
   42093.203582311893       -8.5733142358607672       0.35210719369954274        1.7212076253598372E-008   2.4352682589676098E-006
   43093.203582311893       -8.7899639046125699       0.35192551336788896        1.7204840669570098E-008   2.4524730996371799E-006
   44093.203582311893       -9.0078920212186269       0.35174389581963056        1.7197740673695486E-008   2.4696708403108754E-006
