 #              _____________________  _______________________             #
 #              ___  __ \__  __ \_  / / /_  /___  ____/_  ___/             #
 #              __  / / /_  /_/ /  / / /_  __/_  __/  _____ \              #
 #              _  /_/ /_  _, _// /_/ / / /_ _  /___  ____/ /              #
 #              /_____/ /_/ |_| \____/  \__/ /_____/  /____/               #
 #                                                                         #
  
 #        time                      T            heat flux [W.L-2]   in    x              directions   cumulative flux
 #-----------------------------------------------------------------------------------------------

   0.0000000000000000        25.000000000000000       -0.0000000000000000        0.0000000000000000     
   1.0000000000000000        24.999999967824856        5.4378569913637977E-006   5.4378569913637977E-006
   2.0600000000000001        24.999999833308291        2.5011188427015485E-005   3.0449045418379282E-005
   3.1836000000000002        24.999999570791548        6.5727443505636651E-005   9.6176488924015933E-005
   4.3746160000000005        24.999999109748227        1.3985075270284166E-004   2.3602724162685761E-004
   5.6370929600000004        24.999998359371649        2.6242366306661373E-004   4.9845090469347129E-004
   6.9753185376000006        24.999997207026546        4.5191547016543236E-004   9.5036637485890370E-004
   8.3938376498560014        24.999995514118815        7.3092462873347727E-004   1.6812910035923809E-003
   9.8974679088473625        24.999993111316609        1.1269035050531805E-003   2.8081945086455614E-003
   11.491315983378204        24.999989793189002        1.6729463308706759E-003   4.4811408395162376E-003
   13.180794942380897        24.999985312193054        2.4086557193925317E-003   6.8897965589087692E-003
   14.971642638923752        24.999979371946601        3.3810927127575561E-003   1.0270889271666325E-002
   16.869941197259177        24.999971619737501        4.6458104986868507E-003   1.4916699770353176E-002
   18.882137669094728        24.999961638233167        6.2679683495048379E-003   2.1184668119858013E-002
   21.015065929240414        24.999948936368995        8.3235184822427911E-003   2.9508186602100805E-002
   23.275969884994840        24.999932939411909        1.0900454180955442E-002   4.0408640783056247E-002
   25.672528078094530        24.999912978217154        1.4100102391125828E-002   5.4508743174182077E-002
   28.212879762780204        24.999888277722906        1.8038438088083843E-002   7.2547181262265920E-002
   30.905652548547017        24.999857944758514        2.2847391141205309E-002   9.5394572403471226E-002
   33.759991701459839        24.999820955279024        2.8676108998944069E-002  0.12407068140241530     
   36.785591203547433        24.999776141179836        3.5692130789044603E-002  0.15976281219145991     
   39.992726675760281        24.999722176891787        4.4082420233735403E-002  0.20384523242519531     
   43.392290276305900        24.999657566006448        5.4054196759700905E-002  0.25789942918489622     
   46.995827692884255        24.999580628233861        6.5835496549162667E-002  0.32373492573405888     
   50.815577354457311        24.999489487047267        7.9675388728439753E-002  0.40341031446249864     
   54.864511995724754        24.999382058420178        9.5843766899221985E-002  0.49925408136172061     
   59.156382715468240        24.999256041106694       0.11463063372886516       0.61388471509058573     
   63.705765678396340        24.999108908952948       0.13634479694474091       0.75022951203532662     
   68.528111619100116        24.998937905751976       0.16131189976562185       0.91154141180094850     
   73.639798316246129        24.998740043161792       0.18987171830762187        1.1014131301085703     
   79.058186215220900        24.998512102192532       0.22237467356863092        1.3237878036772013     
   84.801677388134152        24.998250638729523       0.25917752662994831        1.5829653303071496     
   90.889778031422210        24.997951993491139       0.30063825307568293        1.8836035833828326     
   97.343164713307544        24.997612306721770       0.34711012592627166        2.2307137093091045     
   104.18375459610600        24.997227537789954       0.39893507514410304        2.6296487844532077     
   111.43477987187237        24.996793489702043       0.45643643445842569        3.0860852189116335     
   119.12086666418472        24.996305838355962       0.51991123120714722        3.6059964501187807     
   127.26811866403581        24.995760166155470       0.58962221937669423        4.1956186694954747     
   135.90420578387796        24.995151999391943       0.66578989704698566        4.8614085665424600     
   145.05845813091065        24.994476848590555       0.74858478353856983        5.6099933500810302     
   154.76196561876529        24.993730250825443       0.83812025505306464        6.4481136051340950     
   165.04768355589121        24.992907812848532       0.93444624708144797        7.3825598522155431     
   175.95054456924470        24.992005251749656        1.0375443875695485        8.4201042397850916     
   187.50757724339940        24.991018438697576        1.1473240101306834        9.5674282499157748     
   199.75803187800338        24.989943435351304        1.2636201946139305        10.831048444529705     
   212.74351379068358        24.988776528000802        1.3861935520920836        12.217241996621787     
   226.50812461812461        24.987514255825435        1.5147319633160123        13.731973959937800     
   241.09861209521210        24.986153433072811        1.6488542358037634        15.380828195741564     
   256.56452882092486        24.984691164646115        1.7881155784866498        17.168943774228214     
   272.95840055018039        24.983124854924711        1.9320147011779947        19.100958475406209     
   290.33590458319122        24.981452209975718        2.0800022631435091        21.180960738549718     
   308.75605885818271        24.979671233629276        2.2314903290229933        23.412451067572711     
   328.28142238967371        24.977780218162899        2.3858624468334044        25.798313514406114     
   348.97830773305412        24.975777730549936        2.5424839453554475        28.340797459761561     
   370.91700619703738        24.973662595360043        2.7007120579724795        31.041509517734042     
   394.17202656885962        24.971433875449353        2.8599055152976458        33.901415033031689     
   418.82234816299120        24.969090851547321        3.0194333055743230        36.920848338606014     
   444.95168905277069        24.966633001746544        3.1786823736658634        40.099530712271878     
   472.64879039593694        24.964059981747656        3.3370641092236815        43.436594821495561     
   502.00771781969320        24.961371606523990        3.4940195548070174        46.930614376302579     
   533.12818088887479        24.958567833870863        3.6490233385626136        50.579637714865193     
   566.11587174220733        24.955648750111795        3.8015863981651852        54.381224113030378     
   601.08282404673980        24.952614558062898        3.9512576098261296        58.332481722856507     
   638.14779348954426        24.949465567218319        4.0976244669455468        62.430106189802054     
   677.43666109891694        24.946202186017175        4.2403129680369469        66.670419157839007     
   719.08286076485194        24.942824915986630        4.3789868750929353        71.049406032931941     
   763.22783241074308        24.939334347521651        4.5133464945146509        75.562752527446591     
   810.02150235538772        24.935731157053475        4.6431271166393717        80.205879644085968     
   859.62279249671099        24.932016105368909        4.7680972297688928        84.973976873854866     
   912.20016004651370        24.928190036863533        4.8880566034390771        89.862033477293949     
   967.93216964930457        24.924253879538703        5.0028343152021035        94.864867792496057     
   1027.0080998282629        24.920208645580260        5.1122867769104472        99.977154569406508     
   1089.6285858179588        24.916055432382834        5.2162958010465230        105.19345037045304     
   1156.0063009670364        24.911795423906639        5.3147667350203163        110.50821710547335     
   1226.3666790250586        24.907429892272837        5.4076266816045866        115.91584378707793     
   1300.9486797665622        24.902960199518709        5.4948228162696218        121.41066660334755     
   1380.0056005525560        24.898387799446361        5.5763208067330190        126.98698741008057     
   1463.8059365857093        24.893714239507553        5.6521033361824387        132.63909074626301     
   1552.6342927808519        24.888941162674925        5.7221687288939656        138.36125947515697     
   1646.7923503477032        24.884070309255335        5.7865296751223845        144.14778915027935     
   1746.5998913685655        24.879103518605415        5.8452120509371968        149.99300120121654     
   1852.3958848506795        24.874042730713100        5.8982538279123746        155.89125502912893     
   1964.5396379417205        24.868889987611809        5.9457040671055710        161.83695909623449     
   2083.4120162182239        24.863647775746092        5.9875820484522650        167.82454114468675     
   2209.4167371913172        24.858318287596006        6.0239746134424026        173.84851575812914     
   2342.9817414227964        24.852903785318620        6.0549742687992607        179.90349002692841     
   2484.5606459081641        24.847406673518144        6.0806725886748696        185.98416261560328     
   2634.6342846626540        24.841829494684742        6.1011630913600827        192.08532570696337     
   2793.7123417424132        24.836174916076470        6.1165436470941730        198.20186935405755     
   2962.3350822469583        24.830445720233094        6.1269174279268883        204.32878678198443     
   3141.0751871817761        24.824644799197081        6.1323929671071769        210.46117974909160     
   3330.5396984126828        24.818775150771963        6.1330838239178691        216.59426357300947     
   3531.3720803174438        24.812839875534291        6.1291081084632042        222.72337168147268     
   3744.2544051364907        24.806842173810281        6.1205879671529688        228.84395964862566     
   3969.9096694446803        24.800785342098440        6.1076490553548739        234.95160870398053     
   4209.1042496113614        24.794672768499410        6.0904199913549322        241.04202869533546     
   4462.6505045880431        24.788507926666661        6.0690317720562819        247.11106046739175     
   4731.4095348633255        24.782294367657315        6.0436171246279118        253.15467759201965     
   5016.2941069551252        24.776035708866324        6.0143097658143434        259.16898735783400     
   5318.2717533724335        24.769735618986189        5.9812435408504543        265.15023089868447     
   5638.3680585747798        24.763397797671388        5.9445514174763163        271.09478231616077     
   5977.6701420892668        24.757025948334569        5.9043643177721110        276.99914663393287     
   6337.3303506146231        24.750623742302118        5.8608097820694498        282.85995641600232     
   6718.5701716515005        24.744194772467431        5.8140104745686587        288.67396689057097     
   7122.6843819505912        24.737742494659948        5.7640825587879014        294.43804944935886     
   7551.0454448676273        24.731268100749176        5.7112951651754180        300.14934461453430     
   8005.1081715596856        24.724776112887440        5.6555610680113340        305.80490568254561     
   8486.4146618532668        24.718269481138833        5.5969554862704136        311.40186116881603     
   8996.5995415644629        24.711750256205171        5.5355679249060081        316.93742909372202     
   9537.3955140583312        24.705219775629327        5.4714690118017479        322.40889810552375     
   10110.639244901831        24.698678599427264        5.4047090151654693        327.81360712068920     
   10718.277599595942        24.692126386726663        5.3353197106424330        333.14892683133161     
   11362.374255571698        24.685561768687649        5.2633158053576876        338.41224263668931     
   12045.116710906001        24.678982236080490        5.1886961281070141        343.60093876479635     
   12768.823713560361        24.672384052543386        5.1114449576581320        348.71238372245449     
   13535.953136373984        24.665762203184162        5.0315336656921970        353.74391738814671     
   14349.110324556425        24.659110387390658        4.9489227250507017        358.69284011319741     
   15211.056944029811        24.652424812994990        4.8633373787285539        363.55617749192595     
   16124.720360671601        24.645693215277980        4.7750365314890875        368.33121402341504     
   17093.203582311897        24.638905724498471        4.6839215580894322        373.01513558150447     
   18093.203582311897        24.632221803443798        4.5922842628236973        377.60741984432815     
   19093.203582311897        24.625823508751452        4.5029287215472715        382.11034856587543     
   20093.203582311897        24.619678729946713        4.4157106777448698        386.52605924362030     
   21093.203582311897        24.613760343778189        4.3305085926980960        390.85656783631839     
   22093.203582311897        24.608045537739258        4.2472180187280708        395.10378585504645     
   23093.203582311897        24.602515081021192        4.1657479127731349        399.26953376781961     
   24093.203582311897        24.597152720725909        4.0860182284246420        403.35555199624423     
   25093.203582311897        24.591944681139321        4.0079581054532269        407.36351010169744     
   26093.203582311897        24.586879248422058        3.9315044086198090        411.29501451031723     
   27093.203582311897        24.581946426041078        3.8566005175545190        415.15161502787174     
   28093.203582311897        24.577137648777274        3.7831953164483845        418.93481034432011     
   29093.203582311897        24.572445545256087        3.7112423489036739        422.64605269322379     
   30093.203582311897        24.567863740696779        3.6406991109458242        426.28675180416963     
   31093.203582311897        24.563386693017474        3.5715264598787821        429.85827826404841     
   32093.203582311897        24.559009556616726        3.5036881203014114        433.36196638434984     
   33093.203582311893        24.554724249814228        3.4373679958614001        436.79933438021123     
   34093.203582311893        24.550531635394080        3.3721830870408160        440.17151746725204     
   35093.203582311893        24.546428379586295        3.3081760709324888        443.47969353818451     
   36093.203582311893        24.542411177289448        3.2453574889602224        446.72505102714473     
   37093.203582311893        24.538477116706154        3.1837142107728824        449.90876523791763     
   38093.203582311893        24.534623607840057        3.1232255875518136        453.03199082546945     
   39093.203582311893        24.530848311004831        3.0638690219964517        456.09585984746587     
   40093.203582311893        24.527149087222718        3.0056217157100620        459.10148156317592     
   41093.203582311893        24.523523962648969        2.9484612336807161        462.04994279685661     
   42093.203582311893        24.519971101666691        2.8923656836451226        464.94230848050171     
   43093.203582311893        24.516488785778186        2.8373137599658147        467.77962224046752     
   44093.203582311893        24.513075396661897        2.7832847375003364        470.56290697796783     
   45093.203582311893        24.509729402377179        2.7302584473739397        473.29316542534178     
   46093.203582311893        24.506449346026994        2.6782152472743497        475.97138067261614     
   47093.203582311893        24.503233836380367        2.6271359915254826        478.59851666414164     
   48093.203582311893        24.500081540078256        2.5770020029639844        481.17551866710562     
   49093.203582311893        24.496991175129828        2.5277950473505988        483.70331371445621     
   50093.203582311893        24.493961505468285        2.4794973104498341        486.18281102490607     
   51093.203582311893        24.490991336378919        2.4320913775967457        488.61490240250282     
   52093.203582311893        24.488079510647957        2.3855602155774891        491.00046261808029     
   53093.203582311893        24.485224905308542        2.3398871564407431        493.34034977452103     
   54093.203582311893        24.482426428882341        2.2950558831071217        495.63540565762816     
   55093.203582311893        24.479683019032532        2.2510504164057505        497.88645607403390     
   56093.203582311893        24.476993640559442        2.2078551034353251        500.09431117746925     
   57093.203582311893        24.474357283681591        2.1654546069657994        502.25976578443505     
   58093.203582311893        24.471772962554137        2.1238338957967469        504.38359968023178     
   59093.203582311893        24.469239713986241        2.0829782359002671        506.46657791613205     
   60093.203582311893        24.466756596323876        2.0428731822149651        508.50945109834703     
   61093.203582311893        24.464322688471494        2.0035045710662338        510.51295566941326     
   62093.203582311893        24.461937089030062        1.9648585130310574        512.47781418244426     
   63093.203582311893        24.459598915532052        1.9269213862702765        514.40473556871450     
   64093.203582311893        24.457307303758924        1.8896798302165896        516.29441539893105     
   65093.203582311893        24.455061407126855        1.8531207395917126        518.14753613852281     
   66093.203582311893        24.452860396131292        1.8172312587025663        519.96476739722539     
   67093.203582311893        24.450703457840063        1.7819987759947542        521.74676617322018     
   68093.203582311893        24.448589795428607        1.7474109188174258        523.49417709203760     
   69093.203582311893        24.446518627750514        1.7134555483965064        525.20763264043410     
   70093.203582311893        24.444489188938320        1.6801207549873030        526.88775339542144     
   71093.203582311893        24.442500728030375        1.6473948531696465        528.53514824859110     
   72093.203582311893        24.440552508620023        1.6152663773145577        530.15041462590568     
   73093.203582311893        24.438643808523981        1.5837240771632495        531.73413870306888     
   74093.203582311893        24.436773919467711        1.5527569135462500        533.28689561661508     
   75093.203582311893        24.434942146785616        1.5223540542039899        534.80924967081910     
   76093.203582311893        24.433147809133715        1.4925048697330141        536.30175454055211     
   77093.203582311893        24.431390238214384        1.4631989296010446        537.76495347015316     
   78093.203582311893        24.429668778510901        1.4344259982912915        539.19937946844448     
   79093.203582311893        24.427982787031308        1.4061760315222598        540.60555549996673     
   80093.203582311893        24.426331633060641        1.3784391725472771        541.98399467251397     
