 #              _____________________  _______________________             #
 #              ___  __ \__  __ \_  / / /_  /___  ____/_  ___/             #
 #              __  / / /_  /_/ /  / / /_  __/_  __/  _____ \              #
 #              _  /_/ /_  _, _// /_/ / / /_ _  /___  ____/ /              #
 #              /_____/ /_/ |_| \____/  \__/ /_____/  /____/               #
 #                                                                         #
  
 #        time                      h  [L]                   theta [-]       Darcian flow [L.T^{-1}]   in    x              directions   cumulative flux
 #-----------------------------------------------------------------------------------------------

   0.0000000000000000      -0.28000000000000003       0.35977306608771875        1.6806575933321869E-021   1.6806575933321869E-021
   1.0000000000000000      -0.28076989183387807       0.35977238935722605        1.4365590246446925E-008   1.4365590246448606E-008
   2.0600000000000001      -0.28149667267747286       0.35977175038681131        2.1721908535235217E-008   3.6087498781683823E-008
   3.1836000000000002      -0.28213067205425207       0.35977119288173159        2.5433236149777480E-008   6.1520734931461300E-008
   4.3746160000000005      -0.28269998590860895       0.35977069217352975        2.7595277379570372E-008   8.9116012311031669E-008
   5.6370929600000004      -0.28322664121506858       0.35977022891256449        2.9015892251614107E-008   1.1813190456264578E-007
   6.9753185376000006      -0.28372487110456024       0.35976979059297781        3.0024516956811339E-008   1.4815642151945710E-007
   8.3938376498560014      -0.28420442797898926       0.35976936864382963        3.0773836547340768E-008   1.7893025806679788E-007
   9.8974679088473625      -0.28467263586908870       0.35976895662629876        3.1343619249211361E-008   2.1027387731600922E-007
   11.491315983378204      -0.28513547201089912       0.35976854928345292        3.1780204509649351E-008   2.4205408182565855E-007
   13.180794942380897      -0.28559812498115555       0.35976814204984969        3.2113342950533419E-008   2.7416742477619198E-007
   14.971642638923752      -0.28606527743514476       0.35976773080311319        3.2364003382741620E-008   3.0653142815893358E-007
   16.869941197259177      -0.28654124452491109       0.35976731174232890        3.2548159595838275E-008   3.3907958775477187E-007
   18.882137669094728      -0.28703003949579431       0.35976688133042672        3.2678656193212411E-008   3.7175824394798426E-007
   21.015065929240414      -0.28753540615098061       0.35976643626566784        3.2766131742386820E-008   4.0452437569037109E-007
   23.275969884994840      -0.28806083979053460       0.35976597346323730        3.2819486610699387E-008   4.3734386230107045E-007
   25.672528078094530      -0.28860960757769805       0.35976549003730907        3.2846143538287649E-008   4.7019000583935811E-007
   28.212879762780204      -0.28918477299875894       0.35976498327948042        3.2852224315916701E-008   5.0304223015527477E-007
   30.905652548547017      -0.28978922700084547       0.35976445063129492        3.2843723420181573E-008   5.3588595357545640E-007
   33.759991701459839      -0.29042570985674671       0.35976388966491141        3.2822932304643870E-008   5.6870888588010026E-007
   36.785591203547433      -0.29109687208472940       0.35976329802932261        3.2793497046024525E-008   6.0150238292612480E-007
   39.992726675760281      -0.29180529590224086       0.35976267343131457        3.2757906282478484E-008   6.3426028920860331E-007
   43.392290276305900      -0.29255353237197951       0.35976201360256088        3.2717983870745575E-008   6.6697827307934887E-007
   46.995827692884255      -0.29334413673729870       0.35976131626827124        3.2675077393628255E-008   6.9965335047297708E-007
   50.815577354457311      -0.29417969983239456       0.35976057911925308        3.2630178002323251E-008   7.3228352847530029E-007
   54.864511995724754      -0.29506287570476375       0.35975979978726763        3.2584013271957467E-008   7.6486754174725773E-007
   59.156382715468240      -0.29599640561765306       0.35975897582352856        3.2537120480961402E-008   7.9740466222821911E-007
   63.705765678396340      -0.29698313876573218       0.35975810468005021        3.2489903006265391E-008   8.2989456523448452E-007
   68.528111619100116      -0.29802605019240686       0.35975718369341098        3.2442672138077504E-008   8.6233723737256200E-007
   73.639798316246129      -0.29912825648476571       0.35975621007042441        3.2395676740676020E-008   8.9473291411323798E-007
   79.058186215220900      -0.30029302983966155       0.35975518087518915        3.2349123193240882E-008   9.2708203730647891E-007
   84.801677388134152      -0.30152381105726545       0.35975409301702443        3.2303187873998696E-008   9.5938522518047769E-007
   90.889778031422210      -0.30282422194674241       0.35975294323885915        3.2258024154959719E-008   9.9164324933543737E-007
   97.343164713307544      -0.30419807754095707       0.35975172810571759        3.2213765523868743E-008   1.0238570148593060E-006
   104.18375459610600      -0.30564939842760053       0.35975044399302591        3.2170526102199037E-008   1.0560275409615051E-006
   111.43477987187237      -0.30718242342201291       0.35974908707453190        3.2128399519587744E-008   1.0881559404810928E-006
   119.12086666418472      -0.30880162273720663       0.35974765330969327        3.2087456854785867E-008   1.1202433973358787E-006
   127.26811866403581      -0.31051171175040582       0.35974613843043873        3.2047744162420448E-008   1.1522911414982992E-006
   135.90420578387796      -0.31231766542209094       0.35974453792724254        3.2009279967479727E-008   1.1843004214657789E-006
   145.05845813091065      -0.31422473339124396       0.35974284703448089        3.1972053012743654E-008   1.2162724744785226E-006
   154.76196561876529      -0.31623845574725540       0.35974106071506123        3.1936020475782213E-008   1.2482084949543049E-006
   165.04768355589121      -0.31836467946294600       0.35973917364432501        3.1901106820754885E-008   1.2801096017750597E-006
   175.95054456924470      -0.32060957546327629       0.35973718019323564        3.1867203406151794E-008   1.3119768051812116E-006
   187.50757724339940      -0.32297965629961800       0.35973507441086616        3.1834168927924296E-008   1.3438109741091359E-006
   199.75803187800338      -0.32548179439967112       0.35973285000620053        3.1801830734510921E-008   1.3756128048436468E-006
   212.74351379068358      -0.32812324086767886       0.35973050032925796        3.1769987006204932E-008   1.4073827918498517E-006
   226.50812461812461      -0.33091164481869689       0.35972801835154117        3.1738409746140150E-008   1.4391212015959919E-006
   241.09861209521210      -0.33385507324320324       0.35972539664579900        3.1706848487058323E-008   1.4708280500830502E-006
   256.56452882092486      -0.33696203141439590       0.35972262736507837        3.1675034580551533E-008   1.5025030846636018E-006
   272.95840055018039      -0.34024148386860714       0.35971970222102423        3.1642685904737970E-008   1.5341457705683397E-006
   290.33590458319122      -0.34370287600863952       0.35971661246136988        3.1609511807382524E-008   1.5657552823757223E-006
   308.75605885818271      -0.34735615639927464       0.35971334884654099        3.1575218094004206E-008   1.5973305004697266E-006
   328.28142238967371      -0.35121179984231232       0.35970990162528260        3.1539511876696150E-008   1.6288700123464228E-006
   348.97830773305412      -0.35528083133455746       0.35970626050920068        3.1502106116790657E-008   1.6603721184632134E-006
   370.91700619703738      -0.35957485102498182       0.35970241464610186        3.1462723722674279E-008   1.6918348421858878E-006
   394.17202656885962      -0.36410606029682852       0.35969835259200383        3.1421101099424022E-008   1.7232559432853119E-006
   418.82234816299120      -0.36888728910626067       0.35969406228168449        3.1376991085622813E-008   1.7546329343709347E-006
   444.95168905277069      -0.37393202471183290       0.35968953099763540        3.1330165251614485E-008   1.7859630996225491E-006
   472.64879039593694      -0.37925328195131808       0.35968474638083081        3.1278031838515254E-008   1.8172411314610643E-006
   502.00771781969320      -0.38486708376023188       0.35967969329595234        3.1224604202125099E-008   1.8484657356631894E-006
   533.12818088887479      -0.39078898516945004       0.35967435694795280        3.1167960783469139E-008   1.8796336964466585E-006
   566.11587174220733      -0.39703538955405693       0.35966872169334196        3.1107845933066828E-008   1.9107415423797252E-006
   601.08282404673980      -0.40362353993127276       0.35966277104080124        3.1044119913498271E-008   1.9417856622932234E-006
   638.14779348954426      -0.41057154682427105       0.35965648761858426        3.0976674203927095E-008   1.9727623364971505E-006
   677.43666109891694      -0.41789842828426427       0.35964985313056669        3.0905422120574783E-008   2.0036677586177252E-006
   719.08286076485194      -0.42562415409811594       0.35964284830809667        3.0830296594189034E-008   2.0344980552119141E-006
   763.22783241074308      -0.43376969291709577       0.35963545285877774        3.0751249002666127E-008   2.0652493042145804E-006
   810.02150235538772      -0.44235706222212812       0.35962764541225478        3.0668248158170506E-008   2.0959175523727511E-006
   859.62279249671099      -0.45140938126373453       0.35961940346287696        3.0581279324501281E-008   2.1264988316972525E-006
   912.20016004651370      -0.46095092716770036       0.35961070330906569        3.0490343262205035E-008   2.1569891749594577E-006
   967.93216964930457      -0.47100719442178163       0.35960151998919482        3.0395455312453624E-008   2.1873846302719115E-006
   1027.0080998282629      -0.48160495797995134       0.35959182721377747        3.0296644527267411E-008   2.2176812747991790E-006
   1089.6285858179588      -0.49277234024243144       0.35958159729373279        3.0193952849106620E-008   2.2478752276482857E-006
   1156.0063009670364      -0.50453888219318177       0.35957080106449291        3.0087434339184890E-008   2.2779626619874706E-006
   1226.3666790250586      -0.51693561900179164       0.35955940780568779        2.9977154451576082E-008   2.3079398164390468E-006
   1300.9486797665622      -0.52999516042383599       0.35954738515612850        2.9863189347956812E-008   2.3378030057870038E-006
   1380.0056005525560      -0.54375177636353611       0.35953469902378532        2.9745625247661356E-008   2.3675486310346654E-006
   1463.8059365857093      -0.55824148799450857       0.35952131349043664        2.9624557806798356E-008   2.3971731888414635E-006
   1552.6342927808519      -0.57350216486969707       0.35950719071063575        2.9500091520392395E-008   2.4266732803618559E-006
   1646.7923503477032      -0.58957490331416640       0.35949228962166252        2.9375859595051643E-008   2.4560491399569074E-006
   1746.5998913685655      -0.60650023378180640       0.35947656944766632        2.9245339499041346E-008   2.4852944794559487E-006
   1852.3958848506795      -0.62432243822773692       0.35945998569050963        2.9111731119972724E-008   2.5144062105759213E-006
   1964.5396379417205      -0.64308791870288562       0.35944249162856085        2.8975234088699376E-008   2.5433814446646207E-006
   2083.4120162182239      -0.66284550860494951       0.35942403801780715        2.8835991205206968E-008   2.5722174358698278E-006
   2209.4167371913172      -0.68364662843148927       0.35940457293727218        2.8694147828908715E-008   2.6009115836987367E-006
   2342.9817414227964      -0.70554544150273157       0.35938404163500176        2.8549853878219721E-008   2.6294614375769562E-006
   2484.5606459081641      -0.72859902013520650       0.35936238636506362        2.8403263407628638E-008   2.6578647009845850E-006
   2634.6342846626540      -0.75286752388604283       0.35933954621425374        2.8254534029564627E-008   2.6861192350141497E-006
   2793.7123417424132      -0.77841439095701181       0.35931545691771877        2.8103826323005290E-008   2.7142230613371550E-006
   2962.3350822469583      -0.80530654389954970       0.35929005066269515        2.7951303238587950E-008   2.7421743645757431E-006
   3141.0751871817761      -0.83361461086469957       0.35926325587950891        2.7797129501945692E-008   2.7699714940776889E-006
   3330.5396984126828      -0.86341316375697208       0.35923499701892059        2.7641471017350011E-008   2.7976129650950388E-006
   3531.3720803174438      -0.89478097477375118       0.35920519431484149        2.7484494274231799E-008   2.8250974593692704E-006
   3744.2544051364907      -0.92780129294199742       0.35917376353138802        2.7326365759705544E-008   2.8524238251289759E-006
   3969.9096694446803      -0.96256214239661975       0.35914061569319372        2.7167251380083600E-008   2.8795910765090593E-006
   4209.1042496113614      -0.99915664427750428       0.35910565679786044        2.7007315894675175E-008   2.9065983924037344E-006
   4462.6505045880431       -1.0376833642486138       0.35906878750941290        2.6846722364325837E-008   2.9334451147680604E-006
   4731.4095348633255       -1.0782466877517272       0.35902990283163805        2.6685631615711224E-008   2.9601307463837718E-006
   5016.2941069551252       -1.1209572251925051       0.35898889176024867        2.6524201720316872E-008   2.9866549481040887E-006
   5318.2717533724335       -1.1659310778161551       0.35894563804048663        2.6360360519037211E-008   3.0130153086231260E-006
   5638.3680585747798       -1.2132940379776549       0.35890001618873552        2.6198576653950936E-008   3.0392138852770771E-006
   5977.6701420892668       -1.2631778960467561       0.35885189511369348        2.6036935761282398E-008   3.0652508210383595E-006
   6337.3303506146231       -1.3157228831137717       0.35880113585607187        2.5875556920008211E-008   3.0911263779583676E-006
   6718.5701716515005       -1.3710780169732177       0.35874759135802453        2.5714577715733414E-008   3.1168409556741010E-006
   7122.6843819505912       -1.4294017233634491       0.35869110598653003        2.5554130029065946E-008   3.1423950857031670E-006
   7551.0454448676273       -1.4908625080940263       0.35863151502914692        2.5394338557100760E-008   3.1677894242602675E-006
   8005.1081715596856       -1.5556396734803213       0.35856864417178930        2.5235319659197581E-008   3.1930247439194651E-006
   8486.4146618532668       -1.6239240792042053       0.35850230896219759        2.5077179963213744E-008   3.2181019238826787E-006
   8996.5995415644629       -1.6959189477875172       0.35843231426323868        2.4920014694778631E-008   3.2430219385774574E-006
   9537.3955140583312       -1.7718407148103734       0.35835845370078534        2.4763905726127192E-008   3.2677858443035844E-006
   10110.639244901831       -1.8519199241691375       0.35828050911137627        2.4608919368096864E-008   3.2923947636716812E-006
   10718.277599595942       -1.9364021691523614       0.35819824999503996        2.4455103963622694E-008   3.3168498676353038E-006
   11362.374255571698       -2.0255490809866084       0.35811143297850356        2.4302487377339690E-008   3.3411523550126436E-006
   12045.116710906001       -2.1196393678256364       0.35801980129345595        2.4151074511735540E-008   3.3653034295243793E-006
   12768.823713560361       -2.2189699089549491       0.35792308427355884        2.4000845011497461E-008   3.3893042745358766E-006
   13535.953136373984       -2.3238569112821663       0.35782099687249447        2.3851751339413091E-008   3.4131560258752898E-006
   14349.110324556425       -2.4346372792222990       0.35771323906617875        2.3703901613466107E-008   3.4368599274887559E-006
   15211.056944029811       -2.5516693352390885       0.35759949598918228        2.3556780372102394E-008   3.4604167078608583E-006
   16124.720360671601       -2.6753350699371863       0.35747943669811444        2.3410479219383306E-008   3.4838271870802416E-006
   17093.203582311897       -2.8060412010771199       0.35735271422230891        2.3264836006295841E-008   3.5070920230865374E-006
   18093.203582311897       -2.9406514349746518       0.35722241707005914        2.3123209673942726E-008   3.5302152327604800E-006
   19093.203582311897       -3.0749609564620490       0.35709264785687800        2.2989261447808054E-008   3.5532044942082881E-006
   20093.203582311897       -3.2090104415041862       0.35696338747042800        2.2862105204036208E-008   3.5760665994123242E-006
   21093.203582311897       -3.3428354991122626       0.35683461955029538        2.2740954939293358E-008   3.5988075543516176E-006
   22093.203582311897       -3.4764674462851013       0.35670633003585456        2.2625144273711860E-008   3.6214326986253293E-006
   23093.203582311897       -3.6099340477686694       0.35657850669558833        2.2514106533303295E-008   3.6439468051586326E-006
   24093.203582311897       -3.7432601141284447       0.35645113875257234        2.2407358263507167E-008   3.6663541634221396E-006
   25093.203582311897       -3.8764679872712211       0.35632421658646607        2.2304485709480271E-008   3.6886586491316198E-006
   26093.203582311897       -4.0095779359042485       0.35619773149667677        2.2205133664997638E-008   3.7108637827966176E-006
   27093.203582311897       -4.1426084786796853       0.35607167551442825        2.2108996233409906E-008   3.7329727790300274E-006
   28093.203582311897       -4.2755766491213443       0.35594604125388357        2.2015809144285388E-008   3.7549885881743128E-006
   29093.203582311897       -4.4084982135427753       0.35582082179444169        2.1925343344343208E-008   3.7769139315186561E-006
   30093.203582311897       -4.5413878509280092       0.35569601058787653        2.1837399637627156E-008   3.7987513311562832E-006
   31093.203582311897       -4.6742593019466083       0.35557160138525906        2.1751804192437371E-008   3.8205031353487202E-006
   32093.203582311897       -4.8071254928769358       0.35544758817959837        2.1668404767504414E-008   3.8421715401162247E-006
   33093.203582311893       -4.9399986390659203       0.35532396516096659        2.1587067536088970E-008   3.8637586076523133E-006
   34093.203582311893       -5.0728903316704681       0.35520072668151015        2.1507674408283200E-008   3.8852662820605961E-006
   35093.203582311893       -5.2058116107075119       0.35507786722827245        2.1430120770433146E-008   3.9066964028310296E-006
   36093.203582311893       -5.3387730268448452       0.35495538140218885        2.1354313572823829E-008   3.9280507164038535E-006
   37093.203582311893       -5.4717846939305108       0.35483326390192566        2.1280169709842694E-008   3.9493308861136964E-006
   38093.203582311893       -5.6048563338595372       0.35471150951152808        2.1207614645767132E-008   3.9705385007594640E-006
   39093.203582311893       -5.7379973150961536       0.35459011309103949        2.1136581247172464E-008   3.9916750820066368E-006
   40093.203582311893       -5.8712166859166937       0.35446906956943824        2.1067008789299250E-008   4.0127420907959362E-006
   41093.203582311893       -6.0045232032457960       0.35434837393936958        2.0998842108970664E-008   4.0337409329049072E-006
   42093.203582311893       -6.1379253578052984       0.35422802125325964        2.0932030881752611E-008   4.0546729637866596E-006
   43093.203582311893       -6.2714313961547434       0.35410800662049347        2.0866529003797566E-008   4.0755394927904570E-006
   44093.203582311893       -6.4050493401106996       0.35398832520539819        2.0802294062188495E-008   4.0963417868526452E-006
