 #              _____________________  _______________________             #
 #              ___  __ \__  __ \_  / / /_  /___  ____/_  ___/             #
 #              __  / / /_  /_/ /  / / /_  __/_  __/  _____ \              #
 #              _  /_/ /_  _, _// /_/ / / /_ _  /___  ____/ /              #
 #              /_____/ /_/ |_| \____/  \__/ /_____/  /____/               #
 #                                                                         #
  
 #        time                      h  [L]                   theta [-]       Darcian flow [L.T^{-1}]   in    x              directions   cumulative flux
 #-----------------------------------------------------------------------------------------------

   0.0000000000000000      -0.25000000000000000       0.35979931717114128        2.5955439938456022E-024   2.5955439938456022E-024
   1.0000000000000000      -0.25024278410480560       0.35979910569434054        4.6317327908527404E-009   4.6317327908527429E-009
   2.0600000000000001      -0.25062090982296026       0.35979877629565349        9.7699650566966479E-009   1.4401697847549391E-008
   3.1836000000000002      -0.25104592151886557       0.35979840600540625        1.3898811035965752E-008   2.8300508883515144E-008
   4.3746160000000005      -0.25148110186537359       0.35979802680372014        1.7001455854310304E-008   4.5301964737825445E-008
   5.6370929600000004      -0.25191479750572926       0.35979764884347576        1.9341493564822827E-008   6.4643458302648272E-008
   6.9753185376000006      -0.25234487029143893       0.35979727398905625        2.1139387931709500E-008   8.5782846234357769E-008
   8.3938376498560014      -0.25277265826070472       0.35979690107536633        2.2542181752770885E-008   1.0832502798712865E-007
   9.8974679088473625      -0.25320080284832081       0.35979652780023330        2.3645250561272838E-008   1.3197027854840149E-007
   11.491315983378204      -0.25363244278871910       0.35979615142657856        2.4512782994330629E-008   1.5648306154273212E-007
   13.180794942380897      -0.25407088660679850       0.35979576906774680        2.5190784504882102E-008   1.8167384604761422E-007
   14.971642638923752      -0.25451946177480089       0.35979537781893972        2.5714482535189750E-008   2.0738832858280396E-007
   16.869941197259177      -0.25498143669389156       0.35979497482519740        2.6112323096751011E-008   2.3350065167955497E-007
   18.882137669094728      -0.25545997835655360       0.35979455731827875        2.6408046709270157E-008   2.5990869838882512E-007
   21.015065929240414      -0.25595813136492884       0.35979412263491550        2.6621745633664732E-008   2.8653044402248987E-007
   23.275969884994840      -0.25647881192470084       0.35979366822199432        2.6770421094505265E-008   3.1330086511699515E-007
   25.672528078094530      -0.25702481322428611       0.35979319163179357        2.6868323648648054E-008   3.4016918876564322E-007
   28.212879762780204      -0.25759881958488101       0.35979269050954749        2.6927219991063274E-008   3.6709640875670651E-007
   30.905652548547017      -0.25820339187278818       0.35979216260608743        2.6956888424359101E-008   3.9405329718106563E-007
   33.759991701459839      -0.25884110999528792       0.35979160565329077        2.6964670817292966E-008   4.2101796799835859E-007
   36.785591203547433      -0.25951446145052365       0.35979101746122838        2.6956424801482850E-008   4.4797439279984146E-007
   39.992726675760281      -0.26022593496114310       0.35979039583621913        2.6936667986509493E-008   4.7491106078635097E-007
   43.392290276305900      -0.26097804211523412       0.35978973856169399        2.6908751414683213E-008   5.0181981220103415E-007
   46.995827692884255      -0.26177334276894981       0.35978904337573270        2.6875107207487608E-008   5.2869491940852177E-007
   50.815577354457311      -0.26261446938419714       0.35978830794948247        2.6837464547917248E-008   5.5553238395643907E-007
   54.864511995724754      -0.26350414917412007       0.35978752986744039        2.6797028225614178E-008   5.8232941218205320E-007
   59.156382715468240      -0.26444522388285824       0.35978670660974882        2.6754622149800555E-008   6.0908403433185377E-007
   63.705765678396340      -0.26544066735135580       0.35978583553636800        2.6710801143627330E-008   6.3579483547548112E-007
   68.528111619100116      -0.26649360117782755       0.35978491387285422        2.6665935135886526E-008   6.6246077061136763E-007
   73.639798316246129      -0.26760730885445666       0.35978393869740494        2.6620270389979061E-008   6.8908104100134672E-007
   79.058186215220900      -0.26878524877673177       0.35978290692882220        2.6573972477026349E-008   7.1565501347837303E-007
   84.801677388134152      -0.27003106649624337       0.35978181531506370        2.6527155363784785E-008   7.4218216884215782E-007
   90.889778031422210      -0.27134860653792464       0.35978066042209611        2.6479900390126442E-008   7.6866206923228427E-007
   97.343164713307544      -0.27274192404233094       0.35977943862281603        2.6432268200312301E-008   7.9509433743259658E-007
   104.18375459610600      -0.27421529643295484       0.35977814608585712        2.6384305982940348E-008   8.2147864341553692E-007
   111.43477987187237      -0.27577323525436037       0.35977677876414765        2.6336051740411839E-008   8.4781469515594872E-007
   119.12086666418472      -0.27742049828262949       0.35977533238312220        2.6287536787478469E-008   8.7410223194342717E-007
   127.26811866403581      -0.27916210197607855       0.35977380242851803        2.6238787276846408E-008   9.0034101922027358E-007
   135.90420578387796      -0.28100333431079427       0.35977218413370959        2.6189825257187312E-008   9.2653084447746084E-007
   145.05845813091065      -0.28294976803074473       0.35977047246654398        2.6140669566000332E-008   9.5267151404346116E-007
   154.76196561876529      -0.28500727433439710       0.35976866211564829        2.6091336722529099E-008   9.7876285076599029E-007
   165.04768355589121      -0.28718203701721212       0.35976674747618193        2.6041841896475562E-008   1.0048046926624659E-006
   175.95054456924470      -0.28948056709096953       0.35976472263500353        2.5992199969414140E-008   1.0307968926318801E-006
   187.50757724339940      -0.29190971790549886       0.35976258135521993        2.5942426666503315E-008   1.0567393192983834E-006
   199.75803187800338      -0.29447670080549504       0.35976031706007583        2.5892539709894612E-008   1.0826318590082781E-006
   212.74351379068358      -0.29718910136389437       0.35975792281613650        2.5842559926704774E-008   1.1084744189349829E-006
   226.50812461812461      -0.30005489624380460       0.35975539131570461        2.5792512233410296E-008   1.1342669311683932E-006
   241.09861209521210      -0.30308247075211209       0.35975271485840488        2.5742426411886404E-008   1.1600093575802797E-006
   256.56452882092486      -0.30628063715979392       0.35974988533185537        2.5692337593205063E-008   1.1857016951734847E-006
   272.95840055018039      -0.30965865387559893       0.35974689419133815        2.5642286370893692E-008   1.2113439815443783E-006
   290.33590458319122      -0.31322624557072209       0.35974373243836782        2.5592318478179759E-008   1.2369363000225581E-006
   308.75605885818271      -0.31699362436175071       0.35974039059805141        2.5542483982150253E-008   1.2624787840047083E-006
   328.28142238967371      -0.32097151216661957       0.35973685869512234        2.5492835972273501E-008   1.2879716199769818E-006
   348.97830773305412      -0.32517116435339344       0.35973312622853004        2.5443428749290986E-008   1.3134150487262729E-006
   370.91700619703738      -0.32960439480354553       0.35972918214446120        2.5394315551749976E-008   1.3388093642780228E-006
   394.17202656885962      -0.33428360251032369       0.35972501480767172        2.5345545889861366E-008   1.3641549101678842E-006
   418.82234816299120      -0.33922179982851358       0.35972061197101202        2.5297162587036820E-008   1.3894520727549211E-006
   444.95168905277069      -0.34443264248508093       0.35971596074303092        2.5249198655001383E-008   1.4147012714099225E-006
   472.64879039593694      -0.34992937989686462       0.35971104852067942        2.5201048981061400E-008   1.4399023203909840E-006
   502.00771781969320      -0.35572804324307805       0.35970586013475969        2.5153705136678146E-008   1.4650560255276621E-006
   533.12818088887479      -0.36184437745467313       0.35970038058216169        2.5106930539562815E-008   1.4901629560672250E-006
   566.11587174220733      -0.36829492417799520       0.35969459405254056        2.5060557549163825E-008   1.5152235136163888E-006
   601.08282404673980      -0.37509705564998214       0.35968848389048774        2.5014501559589020E-008   1.5402380151759779E-006
   638.14779348954426      -0.38226901000815638       0.35968203255603765        2.4968672223077014E-008   1.5652066873990549E-006
   677.43666109891694      -0.38982993450704656       0.35967522157768089        2.4922957688145601E-008   1.5901296450872004E-006
   719.08286076485194      -0.39779993233611183       0.35966803150171467        2.4877222412123470E-008   1.6150068674993238E-006
   763.22783241074308      -0.40620011216427598       0.35966044183870871        2.4831307922097981E-008   1.6398381754214218E-006
   810.02150235538772      -0.41505264034771777       0.35965243100713745        2.4785034658423136E-008   1.6646232100798450E-006
   859.62279249671099      -0.42438079590833666       0.35964397627408362        2.4738204514055159E-008   1.6893614145939002E-006
   912.20016004651370      -0.43420902844192882       0.35963505369287113        2.4690603916218779E-008   1.7140520185101191E-006
   967.93216964930457      -0.44456301914727164       0.35962563803746189        2.4642007322373469E-008   1.7386940258324926E-006
   1027.0080998282629      -0.45546974519784361       0.35961570273342536        2.4592181000213506E-008   1.7632862068327061E-006
   1089.6285858179588      -0.46695754770876663       0.35960521978526583        2.4540886961578657E-008   1.7878270937942848E-006
   1156.0063009670364      -0.47905620358329215       0.35959415969986769        2.4487886925571742E-008   1.8123149807198566E-006
   1226.3666790250586      -0.49179700155556794       0.35958249140579329        2.4432946196963550E-008   1.8367479269168201E-006
   1300.9486797665622      -0.50521282277943136       0.35957018216814446        2.4375837360847405E-008   1.8611237642776674E-006
   1380.0056005525560      -0.51933822634727245       0.35955719749866966        2.4316343711174078E-008   1.8854401079888416E-006
   1463.8059365857093      -0.53420954015826605       0.35954350106077682        2.4254262348830023E-008   1.9096943703376716E-006
   1552.6342927808519      -0.54986495759272014       0.35952905456908002        2.4189406902597107E-008   1.9338837772402687E-006
   1646.7923503477032      -0.56634573133844035       0.35951381667351529        2.4123335364623607E-008   1.9580071126048922E-006
   1746.5998913685655      -0.58369310339494807       0.35949774578543370        2.4052755277959587E-008   1.9820598678828517E-006
   1852.3958848506795      -0.60195156228754432       0.35948079705983405        2.3978884485567959E-008   2.0060387523684198E-006
   1964.5396379417205      -0.62116789022738195       0.35946292326292612        2.3901708902783015E-008   2.0299404612712030E-006
   2083.4120162182239      -0.64139131887822187       0.35944407461776134        2.3821156562898990E-008   2.0537616178341019E-006
   2209.4167371913172      -0.66267367948209521       0.35942419865544101        2.3737174521692154E-008   2.0774987923557939E-006
   2342.9817414227964      -0.68506955736474506       0.35940324006286473        2.3649733495181838E-008   2.1011485258509757E-006
   2484.5606459081641      -0.70863645712566448       0.35938114052135967        2.3558827792119858E-008   2.1247073536430954E-006
   2634.6342846626540      -0.73343497995041984       0.35935783853505437        2.3464474669220370E-008   2.1481718283123158E-006
   2793.7123417424132      -0.75952901413482976       0.35933326924821368        2.3366713423579231E-008   2.1715385417358948E-006
   2962.3350822469583      -0.78698593996975974       0.35930736425073123        2.3265604276365064E-008   2.1948041460122601E-006
   3141.0751871817761      -0.81587685023169532       0.35928005137092922        2.3161227083646814E-008   2.2179653730959068E-006
   3330.5396984126828      -0.84627678762887526       0.35925125445476364        2.3053679908338081E-008   2.2410190530042451E-006
   3531.3720803174438      -0.87826500066001656       0.35922089313049149        2.2943077486660580E-008   2.2639621304909059E-006
   3744.2544051364907      -0.91192521945113636       0.35918888255781883        2.2829549621476933E-008   2.2867916801123828E-006
   3969.9096694446803      -0.94734595323921100       0.35915513316052977        2.2713239534652298E-008   2.3095049196470352E-006
   4209.1042496113614      -0.98462081126609435       0.35911955034159809        2.2594302208943990E-008   2.3320992218559790E-006
   4462.6505045880431       -1.0238488489259592       0.35908203417981033        2.2472902749982543E-008   2.3545721246059614E-006
   4731.4095348633255       -1.0651349410649180       0.35904247910700354        2.2349214796212002E-008   2.3769213394021734E-006
   5016.2941069551252       -1.1085901843589736       0.35900077356513638        2.2223419001453999E-008   2.3991447584036273E-006
   5318.2717533724335       -1.1543313291582256       0.35895680060617863        2.2094228082579987E-008   2.4212389864862075E-006
   5638.3680585747798       -1.2024842829175966       0.35891043458810590        2.1964642404116812E-008   2.4432036288903242E-006
   5977.6701420892668       -1.2531814584279697       0.35886154379601298        2.1833558432008700E-008   2.4650371873223329E-006
   6337.3303506146231       -1.3065635060068410       0.35880998886864413        2.1701136178985156E-008   2.4867383235013182E-006
   6718.5701716515005       -1.3627798163559295       0.35875562242056830        2.1567572345409747E-008   2.5083058958467281E-006
   7122.6843819505912       -1.4219891294832605       0.35869828858123087        2.1433064582076119E-008   2.5297389604288041E-006
   7551.0454448676273       -1.4843601881708739       0.35863782251281540        2.1297809292267417E-008   2.5510367697210716E-006
   8005.1081715596856       -1.5500724322699939       0.35857404991380148        2.1162000323718229E-008   2.5721987700447899E-006
   8486.4146618532668       -1.6193167342421710       0.35850678651157752        2.1025827467400182E-008   2.5932245975121900E-006
   8996.5995415644629       -1.6922961764629199       0.35843583754786784        2.0889474658432252E-008   2.6141140721706224E-006
   9537.3955140583312       -1.7692268708821208       0.35836099726119242        2.0753117820301681E-008   2.6348671899909242E-006
   10110.639244901831       -1.8503388219141390       0.35828204837088173        2.0616922324280883E-008   2.6554841123152049E-006
   10718.277599595942       -1.9358768339831744       0.35819876156724462        2.0481040077512229E-008   2.6759651523927172E-006
   11362.374255571698       -2.0261014660323555       0.35811089501227883        2.0345606303211493E-008   2.6963107586959288E-006
   12045.116710906001       -2.1212900365742144       0.35801819385477190        2.0210736129226113E-008   2.7165214948251549E-006
   12768.823713560361       -2.2217376845526959       0.35792038976273022        2.0076521155056754E-008   2.7365980159802118E-006
   13535.953136373984       -2.3277584934433571       0.35781720047476279        1.9943026209286099E-008   2.7565410421894980E-006
   14349.110324556425       -2.4396869594009329       0.35770832910709960        1.9810451338519372E-008   2.7763514935280174E-006
   15211.056944029811       -2.5578783172618316       0.35759346467232683        1.9678447827493501E-008   2.7960299413555108E-006
   16124.720360671601       -2.6827110682949318       0.35747228056852537        1.9547171562243448E-008   2.8155771129177545E-006
   17093.203582311897       -2.8145879917937906       0.35734443466961030        1.9416562799978008E-008   2.8349936757177325E-006
   18093.203582311897       -2.9503388711093712       0.35721304892465622        1.9289670866743599E-008   2.8542833465844763E-006
   19093.203582311897       -3.0857227284485260       0.35708226079160127        1.9169793919903029E-008   2.8734531405043793E-006
   20093.203582311897       -3.2207830633490850       0.35695204839499195        1.9056185073838378E-008   2.8925093255782178E-006
   21093.203582311897       -3.3555581248467106       0.35682239270737670        1.8948147247458779E-008   2.9114574728256766E-006
   22093.203582311897       -3.4900817002587119       0.35669327710216892        1.8845080802180220E-008   2.9303025536278568E-006
   23093.203582311897       -3.6243838756551390       0.35656468687749598        1.8746469723935527E-008   2.9490490233517924E-006
   24093.203582311897       -3.7584916502776329       0.35643660887749362        1.8651869299492320E-008   2.9677008926512847E-006
   25093.203582311897       -3.8924294352837161       0.35630903119083274        1.8560895639473310E-008   2.9862617882907580E-006
   26093.203582311897       -4.0262194602059598       0.35618194291076410        1.8473216769286234E-008   3.0047350050600441E-006
   27093.203582311897       -4.1598821054457247       0.35605533394422856        1.8388545047334687E-008   3.0231235501073788E-006
   28093.203582311897       -4.2934361752756072       0.35592919486010516        1.8306630710465929E-008   3.0414301808178446E-006
   29093.203582311897       -4.4268991228193268       0.35580351676868721        1.8227256377160313E-008   3.0596574371950050E-006
   30093.203582311897       -4.5602872361663582       0.35567829122605066        1.8150232366824441E-008   3.0778076695618295E-006
   31093.203582311897       -4.6936157929305802       0.35555351015825970        1.8075392713238009E-008   3.0958830622750676E-006
   32093.203582311897       -4.8268991891319253       0.35542916580135453        1.8002591768943614E-008   3.1138856540440112E-006
   33093.203582311893       -4.9601510471115686       0.35530525065389640        1.7931701312968346E-008   3.1318173553569797E-006
   34093.203582311893       -5.0933843062922914       0.35518175743947816        1.7862608086184467E-008   3.1496799634431642E-006
   35093.203582311893       -5.2266112998652696       0.35505867907713301        1.7795211691612152E-008   3.1674751751347765E-006
   36093.203582311893       -5.3598438198813909       0.35493600865800434        1.7729422803978370E-008   3.1852045979387548E-006
   37093.203582311893       -5.4930931727836807       0.35481373942695066        1.7665161642907766E-008   3.2028697595816626E-006
   38093.203582311893       -5.6263702270130080       0.35469186476805126        1.7602356669780069E-008   3.2204721162514426E-006
   39093.203582311893       -5.7596854540343188       0.35457037819317277        1.7540943475855771E-008   3.2380130597272983E-006
   40093.203582311893       -5.8930489638740067       0.35444927333294074        1.7480863831354416E-008   3.2554939235586526E-006
   41093.203582311893       -6.0264705360633508       0.35432854392959262        1.7422064873077939E-008   3.2729159884317306E-006
   42093.203582311893       -6.1599596467270912       0.35420818383129321        1.7364498408655978E-008   3.2902804868403865E-006
   43093.203582311893       -6.2935254924132646       0.35408818698759298        1.7308120320698417E-008   3.3075886071610851E-006
   44093.203582311893       -6.4271770111672417       0.35396854744576650        1.7252890055525296E-008   3.3248414972166105E-006
