 #              _____________________  _______________________             #
 #              ___  __ \__  __ \_  / / /_  /___  ____/_  ___/             #
 #              __  / / /_  /_/ /  / / /_  __/_  __/  _____ \              #
 #              _  /_/ /_  _, _// /_/ / / /_ _  /___  ____/ /              #
 #              /_____/ /_/ |_| \____/  \__/ /_____/  /____/               #
 #                                                                         #
  
 #        time                      T            heat flux [W.L-2]   in    x              directions   cumulative flux
 #-----------------------------------------------------------------------------------------------

   0.0000000000000000        25.000000000000000       -0.0000000000000000        0.0000000000000000     
   1.0000000000000000        24.999999781067974        3.7001269639347424E-005   3.7001269639347424E-005
   2.0600000000000001        24.999999024639866        1.6143769784093850E-004   1.9843896748028593E-004
   3.1836000000000002        24.999997382270433        4.3429249352300384E-004   6.3273146100328978E-004
   4.3746160000000005        24.999994370435335        9.3649997182865448E-004   1.5692314328319443E-003
   5.6370929600000004        24.999989377399583        1.7692331115881676E-003   3.3384645444201116E-003
   6.9753185376000006        24.999981641058330        3.0577239416729241E-003   6.3961884860930362E-003
   8.3938376498560014        24.999970221124826        4.9555598011608122E-003   1.1351748287253847E-002
   9.8974679088473625        24.999953967301405        7.6494520724068741E-003   1.9001200359660721E-002
   11.491315983378204        24.999931483193617        1.1364542001217637E-002   3.0365742360878356E-002
   13.180794942380897        24.999901085601319        1.6370275518653471E-002   4.6736017879531827E-002
   14.971642638923752        24.999860758849003        2.2986858686486800E-002   6.9722876566018624E-002
   16.869941197259177        24.999808103867316        3.1592287651207640E-002  0.10131516421722626     
   18.882137669094728        24.999740281804410        4.2629926814932245E-002  0.14394509103215852     
   21.015065929240414        24.999653952034254        5.6616584598572321E-002  0.20056167563073085     
   23.275969884994840        24.999545204543967        7.4151006886538223E-002  0.27471268251726910     
   25.672528078094530        24.999409486826703        9.5922673768136416E-002  0.37063535628540550     
   28.212879762780204        24.999241525584434       0.12272074522186950       0.49335610150727499     
   30.905652548547017        24.999035243718673       0.15544296184387491       0.64879906335114990     
   33.759991701459839        24.998783673541492       0.19510422776768657       0.84390329111883644     
   36.785591203547433        24.998478866921882       0.24284462069889703        1.0867479118177334     
   39.992726675760281        24.998111804083013       0.29993642013760591        1.3866843319553395     
   43.392290276305900        24.997672302549013       0.36778977061022361        1.7544741025655630     
   46.995827692884255        24.997148928337840       0.44795650973156936        2.2024306122971322     
   50.815577354457311        24.996528911811424       0.54213165192948154        2.7445622642266136     
   54.864511995724754        24.995798070937518       0.65215198547406439        3.3967142497006781     
   59.156382715468240        24.994940745027694       0.77999122315081026        4.1767054728514887     
   63.705765678396340        24.993939742267489       0.92775115136561392        5.1044566242171028     
   68.528111619100116        24.992776304520557        1.0976482542942299        6.2021048785113324     
   73.639798316246129        24.991430092939186        1.2919953543657339        7.4941002328770665     
   79.058186215220900        24.989879197819601        1.5131779126491935        9.0072781455262607     
   84.801677388134152        24.988100175874180        1.7636247759427837        10.770902921469045     
   90.889778031422210        24.986068117631390        2.0457733431316107        12.816676264600655     
   97.343164713307544        24.983756747003270        2.3620293500526346        15.178705614653289     
   104.18375459610600        24.981138554175580        2.7147217352534323        17.893427349906723     
   111.43477987187237        24.978184961888516        3.1060533397109027        20.999480689617627     
   119.12086666418472        24.974866523914290        3.5380484988204652        24.537529188438093     
   127.26811866403581        24.971153153148464        4.0124988875624084        28.550028076000501     
   135.90420578387796        24.967014375281597        4.5309092587115254        33.080937334712026     
   145.05845813091065        24.962419602589375        5.0944449456345096        38.175382280346533     
   154.76196561876529        24.957338421070521        5.7038831610682301        43.879265441414759     
   165.04768355589121        24.951740883076191        6.3595701877666260        50.238835629181388     
   175.95054456924470        24.945597796814372        7.0613865065027559        57.300222135684145     
   187.50757724339940        24.938881003768685        7.8087217284740058        65.108943864158149     
   199.75803187800338        24.931563635210093        8.6004608886564942        73.709404752814649     
   212.74351379068358        24.923620339636280        9.4349832214371609        83.144387974251813     
   226.50812461812461        24.915027474140302        10.310173999245029        93.454561973496837     
   241.09861209521210        24.905763254333376        11.223449400473967        104.67801137397080     
   256.56452882092486        24.895807859428668        12.171793726417862        116.84980510038866     
   272.95840055018039        24.885143491296006        13.151807656700024        130.00161275708868     
   290.33590458319122        24.873754388556083        14.159765669649031        144.16137842673771     
   308.75605885818271        24.861626798922348        15.191680305421071        159.35305873215879     
   328.28142238967371        24.848748914851083        16.243370653982787        175.59642938614158     
   348.97830773305412        24.835110778986500        17.310532331602669        192.90696171774425     
   370.91700619703738        24.820704166790769        18.388806275710255        211.29576799345452     
   394.17202656885962        24.805522454089239        19.473843927476544        230.76961192093106     
   418.82234816299120        24.789560477054188        20.561366756133776        251.33097867706482     
   444.95168905277069        24.772814391468252        21.647218567063867        272.97819724412869     
   472.64879039593694        24.755281510092299        22.727411114651808        295.70560835878052     
   502.00771781969320        24.736960264140549        23.798153394576655        319.50376175335720     
   533.12818088887479        24.717849998949607        24.855885553060670        344.35964730641786     
   566.11587174220733        24.697950904762315        25.897294906744197        370.25694221316206     
   601.08282404673980        24.677263933797210        26.919326872788162        397.17626908595025     
   638.14779348954426        24.655790732373099        27.919189461480247        425.09545854743050     
   677.43666109891694        24.633533587071927        28.894352415009603        453.98981096244012     
   719.08286076485194        24.610495383573031        29.842542081334837        483.83235304377496     
   763.22783241074308        24.586679576562439        30.761733051669669        514.59408609544460     
   810.02150235538772        24.562090169061932        31.650137481449530        546.24422357689411     
   859.62279249671099        24.536731699586323        32.506192879584667        578.75041645647877     
   912.20016004651370        24.510609235678544        33.328549007558749        612.07896546403754     
   967.93216964930457        24.483728372550797        34.116054392164969        646.19501985620252     
   1027.0080998282629        24.456095235747330        34.867742832184405        681.06276268838690     
   1089.6285858179588        24.427716486920893        35.582820174452927        716.64558286283977     
   1156.0063009670364        24.398599331969777        36.260651549795064        752.90623441263483     
   1226.3666790250586        24.368751530912018        36.900749192856850        789.80698360549172     
   1300.9486797665622        24.338181408977974        37.502760919702034        827.30974452519376     
   1380.0056005525560        24.306897868484960        38.066459300123938        865.37620382531770     
   1463.8059365857093        24.274910401121581        38.591731535227645        903.96793536054531     
   1552.6342927808519        24.242229100319239        39.078570032354421        943.04650539289969     
   1646.7923503477032        24.208864764697143        39.527061440456173        982.57356683335581     
   1746.5998913685655        24.174828600893449        39.937390428588628        1022.5109572619444     
   1852.3958848506795        24.140132586471630        40.309813089598030        1062.8207703515425     
   1964.5396379417205        24.104789343878707        40.644660283230046        1103.4654306347725     
   2083.4120162182239        24.068812147745593        40.942331220475133        1144.4077618552476     
   2209.4167371913172        24.032214933252629        41.203287291014917        1185.6110491462625     
   2342.9817414227964        23.995012303292516        41.428046428908061        1227.0390955751707     
   2484.5606459081641        23.957219533747669        41.617178004385032        1268.6562735795558     
   2634.6342846626540        23.918852576710954        41.771298167227158        1310.4275717467829     
   2793.7123417424132        23.879928061562840        41.891065570405182        1352.3186373171879     
   2962.3350822469583        23.840463293774587        41.977177413867437        1394.2958147310553     
   3141.0751871817761        23.800476251220175        42.030365753949617        1436.3261804850049     
   3330.5396984126828        23.759985577650269        42.051394022080693        1478.3775745070857     
   3531.3720803174438        23.719010572785521        42.041053688153276        1520.4186281952389     
   3744.2544051364907        23.677571178184891        42.000160989696774        1562.4187891849356     
   3969.9096694446803        23.635687957589994        41.929553628712036        1604.3483428136476     
   4209.1042496113614        23.593382069789048        41.830087314983267        1646.1784301286309     
   4462.6505045880431        23.550675231133106        41.702632010290166        1687.8810621389212     
   4731.4095348633255        23.507589663641070        41.548067706114303        1729.4291298450355     
   5016.2941069551252        23.464148023139515        41.367279553750372        1770.7964093987860     
   5318.2717533724335        23.420373572499948        41.161119528535089        1811.9575289273209     
   5638.3680585747798        23.376289410697673        40.930493735039313        1852.8880226623603     
   5977.6701420892668        23.331918657027877        40.676271512696836        1893.5642941750571     
   6337.3303506146231        23.287284282358549        40.399289838193233        1933.9635840132503     
   6718.5701716515005        23.242408740899521        40.100350989000411        1974.0639350022507     
   7122.6843819505912        23.197313551780610        39.780213073834361        2013.8441480760850     
   7551.0454448676273        23.152018797116170        39.439578611815378        2053.2837266879005     
   8005.1081715596856        23.106542520411793        39.079082915715233        2092.3628096036159     
   8486.4146618532668        23.060900021692994        38.699283048581137        2131.0620926521970     
   8996.5995415644629        23.015103055873183        38.300647974646083        2169.3627406268429     
   9537.3955140583312        22.969158951358619        37.883550517387512        2207.2462911442303     
   10110.639244901831        22.923069677187307        37.448261699139564        2244.6945528433698     
   10718.277599595942        22.876830898547617        36.994947941968483        2281.6895007853382     
   11362.374255571698        22.830431071301035        36.523671467680423        2318.2131722530185     
   12045.116710906001        22.783850634954007        36.034394063914725        2354.2475663169330     
   12768.823713560361        22.737061369193590        35.526984205109422        2389.7745505220423     
   13535.953136373984        22.690025980602790        35.001227351841059        2424.7757778738833     
   14349.110324556425        22.642694883474896        34.457033732878195        2459.2328116067615     
   15211.056944029811        22.595015367037192        33.893809722471701        2493.1266213292333     
   16124.720360671601        22.546923807754503        33.311209700052643        2526.4378310292859     
   17093.203582311897        22.498348879017271        32.708868443521112        2559.1466994728071     
   18093.203582311897        22.450433848208149        32.102145253978861        2591.2488447267860     
   19093.203582311897        22.404491904978311        31.509747368648451        2622.7585920954343     
   20093.203582311897        22.360298938705505        30.930895786028064        2653.6894878814624     
   21093.203582311897        22.317666726273846        30.364898314762048        2684.0543861962242     
   22093.203582311897        22.276436919313412        29.811142220302482        2713.8655284165266     
   23093.203582311897        22.236475973967107        29.269085147659712        2743.1346135641861     
   24093.203582311897        22.197670970001276        28.738245640920592        2771.8728592051066     
   25093.203582311897        22.159926154814720        28.218194358236612        2800.0910535633434     
   26093.203582311897        22.123160080711436        27.708546320695984        2827.7995998840393     
   27093.203582311897        22.087303229949068        27.208954228998739        2855.0085541130379     
   28093.203582311897        22.052296042220163        26.719102772915001        2881.7276568859529     
   29093.203582311897        22.018087274984865        26.238703822573914        2907.9663607085267     
   30093.203582311897        21.984632639604520        25.767492384198480        2933.7338530927254     
   31093.203582311897        21.951893666307367        25.305223208851235        2959.0390763015766     
   32093.203582311897        21.919836759202067        24.851667953901792        2983.8907442554782     
   33093.203582311893        21.888432409243251        24.406612809366425        3008.2973570648446     
   34093.203582311893        21.857654538545876        23.969856513655944        3032.2672135785006     
   35093.203582311893        21.827479953970293        23.541208694548896        3055.8084222730495     
   36093.203582311893        21.797887891640340        23.120488481305948        3078.9289107543555     
   37093.203582311893        21.768859637153106        22.707523342542622        3101.6364340968980     
   38093.203582311893        21.740378208806121        22.302148111922484        3123.9385822088207     
   39093.203582311893        21.712428093298374        21.904204170053497        3145.8427863788743     
   40093.203582311893        21.684995025132729        21.513538756243879        3167.3563251351184     
   41093.203582311893        21.658065802417212        21.130004388286746        3188.4863295234049     
   42093.203582311893        21.631628132987380        20.753458372031414        3209.2397878954362     
   43093.203582311893        21.605670505789675        20.383762385722729        3229.6235502811587     
   44093.203582311893        21.580182083311733        20.020782126500091        3249.6443324076590     
   45093.203582311893        21.555156185495168        19.664183046710377        3269.3085154543696     
   46093.203582311893        21.530578764633496        19.314164967158014        3288.6226804215275     
   47093.203582311893        21.506440470950899        18.970538130115955        3307.5932185516435     
   48093.203582311893        21.482732653942165        18.633145742007713        3326.2263642936514     
   49093.203582311893        21.459446921322147        18.301856893748539        3344.5282211874000     
   50093.203582311893        21.436575122320690        17.976551515846563        3362.5047727032465     
   51093.203582311893        21.414109346269164        17.657114973727413        3380.1618876769739     
   52093.203582311893        21.392041912392884        17.343436214702979        3397.5053238916771     
   53093.203582311893        21.370365355791474        17.035407042064850        3414.5407309337420     
   54093.203582311893        21.349072412921004        16.732921774165057        3431.2736527079069     
   55093.203582311893        21.328156007943697        16.435877052196936        3447.7095297601040     
   56093.203582311893        21.307609240402254        16.144171713211641        3463.8537014733156     
   57093.203582311893        21.287425374292610        15.857706695546868        3479.7114081688624     
   58093.203582311893        21.267597828454225        15.576384962255426        3495.2877931311177     
   59093.203582311893        21.248120168142322        15.300111435615905        3510.5879045667334     
   60093.203582311893        21.228986097633708        15.028792939049707        3525.6166975057831     
   61093.203582311893        21.210189453723853        14.762338144384364        3540.3790356501677     
   62093.203582311893        21.191724199986250        14.500657523151892        3554.8796931733195     
   63093.203582311893        21.173584421681223        14.243663301105078        3569.1233564744248     
   64093.203582311893        21.155764321216047        13.991269415381522        3583.1146258898061     
   65093.203582311893        21.138258214072856        13.743391473867304        3596.8580173636733     
   66093.203582311893        21.121060525133448        13.499946716476419        3610.3579640801499     
   67093.203582311893        21.104165785341177        13.260853978094136        3623.6188180582440     
   68093.203582311893        21.087568628649453        13.026033652993393        3636.6448517112372     
   69093.203582311893        21.071263789214484        12.795407660581747        3649.4402593718187     
   70093.203582311893        21.055246098796751        12.568899412329047        3662.0091587841475     
   71093.203582311893        21.039510484341271        12.346433779799165        3674.3555925639466     
   72093.203582311893        21.024051965711742        12.127937063690327        3686.4835296276369     
   73093.203582311893        21.008865653557621        11.913336963795290        3698.3968665914322     
   74093.203582311893        20.993946747296530        11.702562549822760        3710.0994291412549     
   75093.203582311893        20.979290533197062        11.495544233044427        3721.5949733742991     
   76093.203582311893        20.964892382549912        11.292213738701186        3732.8871871130004     
   77093.203582311893        20.950747749916658        11.092504079123827        3743.9796911921244     
   78093.203582311893        20.936852171447516        10.896349527550719        3754.8760407196751     
   79093.203582311893        20.923201263260811        10.703685592581442        3765.5797263122563     
   80093.203582311893        20.909790719877556        10.514448993280309        3776.0941753055367     
