 #              _____________________  _______________________             #
 #              ___  __ \__  __ \_  / / /_  /___  ____/_  ___/             #
 #              __  / / /_  /_/ /  / / /_  __/_  __/  _____ \              #
 #              _  /_/ /_  _, _// /_/ / / /_ _  /___  ____/ /              #
 #              /_____/ /_/ |_| \____/  \__/ /_____/  /____/               #
 #                                                                         #
  
 #        time                      T            heat flux [W.L-2]   in    x              directions   cumulative flux
 #-----------------------------------------------------------------------------------------------

   0.0000000000000000        25.000000000000000       -0.0000000000000000        0.0000000000000000     
   1.0000000000000000        24.999999999999996       -6.0396132539608516E-013   6.0396132539608516E-013
   2.0600000000000001        24.999999999917808        7.7609030313396943E-010   7.7669426445936551E-010
   3.1836000000000002        24.999999999541259        3.4317082509005559E-009   4.2084025153599214E-009
   4.3746160000000005        24.999999998571340        8.5418250250768324E-009   1.2750227540436754E-008
   5.6370929600000004        24.999999996712443        1.5905321504305903E-008   2.8655549044742656E-008
   6.9753185376000006        24.999999993734864        2.4883206606318709E-008   5.3538755651061365E-008
   8.3938376498560014        24.999999989494835        3.4793004033417674E-008   8.8331759684479039E-008
   9.8974679088473625        24.999999983924841        4.5104435741905036E-008   1.3343619542638407E-007
   11.491315983378204        24.999999977012408        5.5494986384019285E-008   1.8893118181040336E-007
   13.180794942380897        24.999999968778717        6.5808833937808231E-008   2.5474001574821159E-007
   14.971642638923752        24.999999959261714        7.6000681303867168E-008   3.3074069705207876E-007
   16.869941197259177        24.999999948504339        8.6087439399307186E-008   4.1682813645138594E-007
   18.882137669094728        24.999999936546885        9.6120444936786953E-008   5.1294858138817290E-007
   21.015065929240414        24.999999923422386        1.0616311385547306E-007   6.1911169524364595E-007
   23.275969884994840        24.999999909153928        1.1628007001718288E-007   7.3539176526082883E-007
   25.672528078094530        24.999999893753351        1.2653050163180524E-007   8.6192226689263407E-007
   28.212879762780204        24.999999877220716        1.3696574541199880E-007   9.9888801230463287E-007
   30.905652548547017        24.999999859544427        1.4763049449584287E-007   1.1465185068004757E-006
   33.759991701459839        24.999999840702309        1.5855917467888503E-007   1.3050776814793608E-006
   36.785591203547433        24.999999820660552        1.6977956818209350E-007   1.4748572496614543E-006
   39.992726675760281        24.999999799375711        1.8131462553583333E-007   1.6561718751972876E-006
   43.392290276305900        24.999999776795356        1.9317702992793784E-007   1.8493489051252254E-006
   46.995827692884255        24.999999752858749        2.0537584077828797E-007   2.0547247459035134E-006
   50.815577354457311        24.999999727497482        2.1791407789351069E-007   2.2726388237970241E-006
   54.864511995724754        24.999999700635993        2.3079294919625681E-007   2.5034317729932809E-006
   59.156382715468240        24.999999672191940        2.4400701903459776E-007   2.7474387920278787E-006
   63.705765678396340        24.999999642076457        2.5755085175660497E-007   3.0049896437844836E-006
   68.528111619100116        24.999999610194259        2.7141357605842131E-007   3.2764032198429049E-006
   73.639798316246129        24.999999576443642        2.8558311271353887E-007   3.5619863325564438E-006
   79.058186215220900        24.999999540716388        3.0004617457279892E-007   3.8620325071292427E-006
   84.801677388134152        24.999999502897559        3.1478705864174117E-007   4.1768195657709839E-006
   90.889778031422210        24.999999462865222        3.2978462627397676E-007   4.5066041920449607E-006
   97.343164713307544        24.999999420490141        3.4502136259106919E-007   4.8516255546360298E-006
   104.18375459610600        24.999999375635394        3.6047371310132803E-007   5.2120992677373579E-006
   111.43477987187237        24.999999328155955        3.7611872727438822E-007   5.5882179950117461E-006
   119.12086666418472        24.999999277898247        3.9193043477325773E-007   5.9801484297850038E-006
   127.26811866403581        24.999999224699671        4.0788407318359532E-007   6.3880325029685991E-006
   135.90420578387796        24.999999168388079        4.2395125632310737E-007   6.8119837592917065E-006
   145.05845813091065        24.999999108781225        4.4010178612552409E-007   7.2520855454172306E-006
   154.76196561876529        24.999999045686220        4.5630727640855184E-007   7.7083928218257824E-006
   165.04768355589121        24.999998978898919        4.7253752910592084E-007   8.1809303509317033E-006
   175.95054456924470        24.999998908203285        4.8876053426738508E-007   8.6696908851990884E-006
   187.50757724339940        24.999998833370729        5.0494247005872239E-007   9.1746333552578108E-006
   199.75803187800338        24.999998754159400        5.2105011860703598E-007   9.6956834738648467E-006
   212.74351379068358        24.999998670313481        5.3705328184605605E-007   1.0232736755710903E-005
   226.50812461812461        24.999998581562373        5.5291753398023502E-007   1.0785654289691138E-005
   241.09861209521210        24.999998487619898        5.6860784525269992E-007   1.1354262134943838E-005
   256.56452882092486        24.999998388183442        5.8409160175187935E-007   1.1938353736695717E-005
   272.95840055018039        24.999998282933024        5.9933679352752733E-007   1.2537690530223244E-005
   290.33590458319122        24.999998171530372        6.1431080666807247E-007   1.3152001336891317E-005
   308.75605885818271        24.999998053617894        6.2898525499122115E-007   1.3780986591882538E-005
   328.28142238967371        24.999997928817592        6.4333296023733055E-007   1.4424319552119869E-005
   348.97830773305412        24.999997796729950        6.5733882337326577E-007   1.5081658375493134E-005
   370.91700619703738        24.999997656932713        6.7100586420565378E-007   1.5752664239698788E-005
   394.17202656885962        24.999997508979547        6.8438119171787548E-007   1.6437045431416664E-005
   418.82234816299120        24.999997352398537        6.9761096455067673E-007   1.7134656395967340E-005
   444.95168905277069        24.999997186690351        7.1104306442748566E-007   1.7845699460394826E-005
   472.64879039593694        24.999997011325789        7.2546264107131719E-007   1.8571162101466143E-005
   502.00771781969320        24.999996825771483        7.4253240001098675E-007   1.9313694501477130E-005
   533.12818088887479        24.999996629402951        7.6577524765752969E-007   2.0079469749134660E-005
   566.11587174220733        24.999996421562983        8.0228531373904843E-007   2.0881755062873708E-005
   601.08282404673980        24.999996201521636        8.6616751104884315E-007   2.1747922573922551E-005
   638.14779348954426        24.999995968429310        9.8482839661073740E-007   2.2732750970533289E-005
   677.43666109891694        24.999995721228512        1.2104055358008736E-006   2.3943156506334162E-005
   719.08286076485194        24.999995458484445        1.6399488700358233E-006   2.5583105376369986E-005
   763.22783241074308        24.999995178064466        2.4502239881485366E-006   2.8033329364518522E-005
   810.02150235538772        24.999994876543354        3.9561701470347543E-006   3.1989499511553277E-005
   859.62279249671099        24.999994548123496        6.7065538544852643E-006   3.8696053366038541E-005
   912.20016004651370        24.999994182717643        1.1636298182793325E-005   5.0332351548831866E-005
   967.93216964930457        24.999993762622164        2.0302443211051013E-005   7.0634794759882880E-005
   1027.0080998282629        24.999993256877978        3.5239401512399127E-005   1.0587419627228201E-004
   1089.6285858179588        24.999992611935038        6.0478312953193836E-005   1.6635250922547584E-004
   1156.0063009670364        24.999991736561828        1.0228366914333265E-004   2.6863617836880849E-004
   1226.3666790250586        24.999990478030824        1.7016564743954632E-004   4.3880182580835481E-004
   1300.9486797665622        24.999988585433400        2.7822629906637530E-004   7.1702812487473011E-004
   1380.0056005525560        24.999985654522551        4.4688846511320435E-004   1.1639165899879345E-003
   1463.8059365857093        24.999981046777453        7.0503516216291473E-004   1.8689517521508492E-003
   1552.6342927808519        24.999973773508124        1.0925517032234211E-003   2.9615034553742703E-003
   1646.7923503477032        24.999962333917424        1.6632122994764131E-003   4.6247157548506834E-003
   1746.5998913685655        24.999944494291213        2.4877894071906326E-003   7.1125051620413160E-003
   1852.3958848506795        24.999916994428744        3.6571912379557148E-003   1.0769696399997031E-002
   1964.5396379417205        24.999875166550360        5.2853606450042889E-003   1.6055057045001320E-002
   2083.4120162182239        24.999812453153890        7.5116049746881686E-003   2.3566662019689488E-002
   2209.4167371913172        24.999719812087445        1.0501985376230039E-002   3.4068647395919527E-002
   2342.9817414227964        24.999585001062187        1.4449385626136291E-002   4.8518033022055818E-002
   2484.5606459081641        24.999391739421700        1.9571914028411186E-002   6.8089947050467003E-002
   2634.6342846626540        24.999118752249423        2.6109371184190877E-002   9.4199318234657881E-002
   2793.7123417424132        24.998738710515674        3.4317639645209397E-002  0.12851695787986728     
   2962.3350822469583        24.998217090420901        4.4461009800009776E-002  0.17297796767987705     
   3141.0751871817761        24.997510984689860        5.6802635490029729E-002  0.22978060316990678     
   3330.5396984126828        24.996567907510979        7.1593493842989631E-002  0.30137409701289641     
   3531.3720803174438        24.995324642261323        8.9060386471686570E-002  0.39043448348458298     
   3744.2544051364907        24.993706186344252       0.10939364418877773       0.49982812767336071     
   3969.9096694446803        24.991624849775683       0.13273526990637663       0.63256339757973734     
   4209.1042496113614        24.988979563194444       0.15916826522133221       0.79173166280106955     
   4462.6505045880431        24.985655446621308       0.18870783378858391       0.98043949658965346     
   4731.4095348633255        24.981523682711448       0.22129504431312341        1.2017345409027769     
   5016.2941069551252        24.976441727866096       0.25679337945518910        1.4585279203579660     
   5318.2717533724335        24.970253881779030       0.29498842179393137        1.7535163421518973     
   5638.3680585747798        24.962792223267698       0.33559066490681744        2.0891070070587148     
   5977.6701420892668        24.953877903698558       0.37824138960470322        2.4673483966634180     
   6337.3303506146231        24.943322777554755       0.42252119587786297        2.8898695925412810     
   6718.5701716515005        24.930931335505772       0.46796076559250110        3.3578303581337821     
   7122.6843819505912        24.916502894821424       0.51405328747666346        3.8718836456104455     
   7551.0454448676273        24.899833993155490       0.56026793022304844        4.4321515758334940     
   8005.1081715596856        24.880720925587156       0.60606373964031235        5.0382153154738063     
   8486.4146618532668        24.858962361357662       0.65090336497029000        5.6891186804440963     
   8996.5995415644629        24.834361975882622       0.69426608070607188        6.3833847611501682     
   9537.3955140583312        24.806731035137954       0.73565965486206863        7.1190444160122368     
   10110.639244901831        24.775890873088795       0.77463071339305856        7.8936751294052954     
   10718.277599595942        24.741675208084420       0.81077335465824518        8.7044484840635405     
   11362.374255571698        24.703932250708664       0.84373586944888501        9.5481843535124256     
   12045.116710906001        24.662526563130275       0.87322551502293067        10.421409868535356     
   12768.823713560361        24.617340638299456       0.89901137127558428        11.320421239810941     
   13535.953136373984        24.568276176243195       0.92092537114201178        12.241346610952952     
   14349.110324556425        24.515255044101409       0.93886164719936716        13.180208258152319     
   15211.056944029811        24.458219910005244       0.95277447190500908        14.132982730057329     
   16124.720360671601        24.397134570217858       0.96267465876429981        15.095657388821628     
   17093.203582311897        24.331983983504404       0.96862494168885149        16.064282330510480     
   18093.203582311897        24.264564442548270       0.97076689828242024        17.035049228792900     
   19093.203582311897        24.197224669660237       0.96961714992755077        18.004666378720451     
   20093.203582311897        24.130151995869866       0.96577197802574233        18.970438356746193     
   21093.203582311897        24.063498947019809       0.95973040403610099        19.930168760782294     
   22093.203582311897        23.997389114653515       0.95190908074638259        20.882077841528677     
   23093.203582311897        23.931921977058256       0.94265523862912204        21.824733080157799     
   24093.203582311897        23.867176948143523       0.93225780475332698        22.756990884911126     
   25093.203582311897        23.803216769130529       0.92095686618563377        23.677947751096760     
   26093.203582311897        23.740090344403516       0.90895167396421783        24.586899425060977     
   27093.203582311897        23.677835109328736       0.89640738269114451        25.483306807752122     
   28093.203582311897        23.616479005229571       0.88346070742922223        26.366767515181344     
   29093.203582311897        23.556042125387727       0.87022466089017314        27.236992176071517     
   30093.203582311897        23.496538086016006       0.85679251380835098        28.093784689879868     
   31093.203582311897        23.437975167581797       0.84324110187480983        28.937025791754678     
   32093.203582311897        23.380357264541505       0.82963358459458902        29.766659376349267     
   33093.203582311893        23.323684675341219       0.81602174545349015        30.582681121802757     
   34093.203582311893        23.267954759304022       0.80244790873187810        31.385129030534635     
   35093.203582311893        23.213162482625460       0.78894653635185108        32.174075566886486     
   36093.203582311893        23.159300872012299       0.77554555780370293        32.949621124690189     
   37093.203582311893        23.106361391416584       0.76226747757242919        33.711888602262619     
   38093.203582311893        23.054334254740283       0.74913029716864088        34.461018899431259     
   39093.203582311893        23.003208685237222       0.73614828267523080        35.197167182106490     
   40093.203582311893        22.952973130546621       0.72333260366296059        35.920499785769451     
   41093.203582311893        22.903615440798490       0.71069186495304137        36.631191650722492     
   42093.203582311893        22.855123015986621       0.69823254916375532        37.329424199886247     
   43093.203582311893        22.807482927768557       0.68595938496681441        38.015383584853062     
   44093.203582311893        22.760682019987946       0.67387565348177247        38.689259238334834     
   45093.203582311893        22.714706995814144       0.66198338091009390        39.351242619244928     
   46093.203582311893        22.669544488332953       0.65028357731307551        40.001526196558004     
   47093.203582311893        22.625181112862691       0.63877649868455677        40.640302695242561     
   48093.203582311893        22.581603507869310       0.62746181235056042        41.267764507593121     
   49093.203582311893        22.538798369051754       0.61633869465218538        41.884103202245306     
   50093.203582311893        22.496752478781719       0.60540589796236333        42.489509100207670     
   51093.203582311893        22.455452731284684       0.59466181202960655        43.084170912237276     
   52093.203582311893        22.414886153567654       0.58410452522572598        43.668275437463002     
   53093.203582311893        22.375039922283378       0.57373188306183209        44.242007320524834     
   54093.203582311893        22.335901376952215       0.56354154063633644        44.805548861161171     
   55093.203582311893        22.297458030073216       0.55353100743499084        45.359079868596162     
   56093.203582311893        22.259697574659040       0.54369768442558808        45.902777553021750     
   57093.203582311893        22.222607889672844       0.53403889426810736        46.436816447289857     
   58093.203582311893        22.186177043769984       0.52455190573407862        46.961368353023936     
   59093.203582311893        22.150393297673730       0.51523395336793953        47.476602306391875     
   60093.203582311893        22.115245105450850       0.50608225333800050        47.982684559729876     
   61093.203582311893        22.080721114900516       0.49709401619512761        48.479778575925003     
   62093.203582311893        22.046810167229317       0.48826645716545158        48.968045033090455     
   63093.203582311893        22.013501296150810       0.47959680442946961        49.447641837519924     
   64093.203582311893        21.980783726523541       0.47108230576682786        49.918724143286752     
   65093.203582311893        21.948646872619520       0.46272023388386430        50.381444377170617     
   66093.203582311893        21.917080336099136       0.45450789064194197        50.835952267812559     
   67093.203582311893        21.886073903754024       0.44644261039252342        51.282394878205082     
   68093.203582311893        21.855617545069052       0.43852176258447173        51.720916640789554     
   69093.203582311893        21.825701409646229       0.43074275376255855        52.151659394552112     
   70093.203582311893        21.796315824523763       0.42310302905985253        52.574762423611965     
   71093.203582311893        21.767451291419910       0.41560007329692894        52.990362496908894     
   72093.203582311893        21.739098483924373       0.40823141173078170        53.398593908639675     
   73093.203582311893        21.711248244656314       0.40099461052953700        53.799588519169212     
   74093.203582311893        21.683891582405664       0.39388727703034476        54.193475796199557     
   75093.203582311893        21.657019669269502       0.38690705979071538        54.580382855990273     
   76093.203582311893        21.630623837794861       0.38005164851302453        54.960434504503297     
   77093.203582311893        21.604695578136084       0.37331877382285938        55.333753278326157     
   78093.203582311893        21.579226535233655       0.36670620696522604        55.700459485291383     
   79093.203582311893        21.554208506020267       0.36021175941620243        56.060671244707585     
   80093.203582311893        21.529633436658010       0.35383328242936329        56.414504527136948     
