 #              _____________________  _______________________             #
 #              ___  __ \__  __ \_  / / /_  /___  ____/_  ___/             #
 #              __  / / /_  /_/ /  / / /_  __/_  __/  _____ \              #
 #              _  /_/ /_  _, _// /_/ / / /_ _  /___  ____/ /              #
 #              /_____/ /_/ |_| \____/  \__/ /_____/  /____/               #
 #                                                                         #
  
 #        time                      h  [L]                   theta [-]       Darcian flow [L.T^{-1}]   in    x              directions   cumulative flux
 #-----------------------------------------------------------------------------------------------

   0.0000000000000000      -0.28000000000000003       0.35977306608771875        1.6806575933321869E-021   1.6806575933321869E-021
   1.0000000000000000      -0.28763002630494816       0.35976635292904868        1.4170703915947743E-007   1.4170703915947909E-007
   2.0600000000000001      -0.29480248161318728       0.35976002958319564        2.1285665063721607E-007   3.5456368979669516E-007
   3.1836000000000002      -0.30102572764795527       0.35975453330284840        2.4773720251054041E-007   6.0230089230723557E-007
   4.3746160000000005      -0.30657425530211946       0.35974962544236327        2.6715366481220995E-007   8.6945455711944552E-007
   5.6370929600000004      -0.31166332860736978       0.35974511790789843        2.7910432875943950E-007   1.1485588858788849E-006
   6.9753185376000006      -0.31643141852221174       0.35974088949665817        2.8685991877558544E-007   1.4354188046544705E-006
   8.3938376498560014      -0.32097244026262495       0.35973685787068505        2.9194438825768546E-007   1.7273631929121559E-006
   9.8974679088473625      -0.32535581728407387       0.35973296203158939        2.9516016703319705E-007   2.0225233599453530E-006
   11.491315983378204      -0.32963707420532218       0.35972915305559194        2.9697826611648960E-007   2.3195016260618425E-006
   13.180794942380897      -0.33386331936987745       0.35972538929849690        2.9770463386175004E-007   2.6172062599235925E-006
   14.971642638923752      -0.33807604637906075       0.35972163394969442        2.9755727783543568E-007   2.9147635377590281E-006
   16.869941197259177      -0.34231253556635172       0.35971785381402954        2.9670374795711006E-007   3.2114672857161383E-006
   18.882137669094728      -0.34660654873277463       0.35971401871333625        2.9527974018142847E-007   3.5067470258975665E-006
   21.015065929240414      -0.35098845810710472       0.35971010138739967        2.9339781405451724E-007   3.8001448399520836E-006
   23.275969884994840      -0.35548618543813459       0.35970607666700216        2.9115409483201133E-007   4.0912989347840949E-006
   25.672528078094530      -0.36012477056852482       0.35970192186908417        2.8862973990423749E-007   4.3799286746883327E-006
   28.212879762780204      -0.36492680191865207       0.35969761642037890        2.8589260080522360E-007   4.6658212754935564E-006
   30.905652548547017      -0.36991271905166406       0.35969314159347582        2.8299938387967746E-007   4.9488206593732337E-006
   33.759991701459839      -0.37510112101366921       0.35968848023619188        2.7999706611958577E-007   5.2288177254928195E-006
   36.785591203547433      -0.38050908810139200       0.35968361648747382        2.7692427600456341E-007   5.5057420014973827E-006
   39.992726675760281      -0.38615250349259994       0.35967853549201434        2.7381260529693080E-007   5.7795546067943132E-006
   43.392290276305900      -0.39204636174918545       0.35967322312527422        2.7068780914362830E-007   6.0502424159379411E-006
   46.995827692884255      -0.39820505428273373       0.35966766573788256        2.6757086292748452E-007   6.3178132788654254E-006
   50.815577354457311      -0.40464262536922418       0.35966184992527805        2.6447885766896892E-007   6.5822921365343947E-006
   54.864511995724754      -0.41137299561083568       0.35965576232551433        2.6142572942977271E-007   6.8437178659641676E-006
   59.156382715468240      -0.41841015254984304       0.35964938944563762        2.5842282988873323E-007   7.1021406958529004E-006
   63.705765678396340      -0.42576831029246698       0.35964271751511673        2.5547935395814958E-007   7.3576200498110500E-006
   68.528111619100116      -0.43346204147086648       0.35963573236347068        2.5260264579239322E-007   7.6102226956034435E-006
   73.639798316246129      -0.44150638571463713       0.35962841931846545        2.4979840713796575E-007   7.8600211027414086E-006
   79.058186215220900      -0.44991693912562841       0.35962076312093927        2.4707083225532178E-007   8.1070919349967304E-006
   84.801677388134152      -0.45870992918151476       0.35961274785235009        2.4442269225120259E-007   8.3515146272479327E-006
   90.889778031422210      -0.46790227916462396       0.35960435687141679        2.4185538919491157E-007   8.5933700164428435E-006
   97.343164713307544      -0.47751166573819470       0.35959557275662574        2.3936899735015550E-007   8.8327390137929991E-006
   104.18375459610600      -0.48755657276224201       0.35958637725183623        2.3696230559996992E-007   9.0697013193929682E-006
   111.43477987187237      -0.49805634391761006       0.35957675121267235        2.3463287191224516E-007   9.3043341913052131E-006
   119.12086666418472      -0.50903123622493995       0.35956667455181190        2.3237709761525519E-007   9.5367112889204681E-006
   127.26811866403581      -0.52050247611953804       0.35955612618165572        2.3019032637692830E-007   9.7669016152973967E-006
   135.90420578387796      -0.53249231937318897       0.35954508395318829        2.2806697011531752E-007   9.9949685854127141E-006
   145.05845813091065      -0.54502411583170363       0.35953352459012766        2.2600066160810962E-007   1.0220969247020824E-005
   154.76196561876529      -0.55812237965260714       0.35952142361771827        2.2398443131926729E-007   1.0444953678340092E-005
   165.04768355589121      -0.57181286547332488       0.35950875528575288        2.2201090395461842E-007   1.0666964582294710E-005
   175.95054456924470      -0.58612328711623163       0.35949549189530300        2.2007655211495212E-007   1.0887041134409663E-005
   187.50757724339940      -0.60108146259734374       0.35948160551058583        2.1816707048829645E-007   1.1105208204897960E-005
   199.75803187800338      -0.61671741441615202       0.35946706600737927        2.1627738474933549E-007   1.1321485589647296E-005
   212.74351379068358      -0.63306279340214611       0.35945184159776089        2.1440108640924318E-007   1.1535886676056539E-005
   226.50812461812461      -0.65015093579152217       0.35943589876952947        2.1253200163643487E-007   1.1748418677692974E-005
   241.09861209521210      -0.66801699213225507       0.35941920215871614        2.1066468147634075E-007   1.1959083359169314E-005
   256.56452882092486      -0.68669804888438946       0.35940171442865559        2.0879456544374573E-007   1.2167877924613060E-005
   272.95840055018039      -0.70623325134596793       0.35938339614772669        2.0691807659569044E-007   1.2374796001208751E-005
   290.33590458319122      -0.72666393041070942       0.35936420566354205        2.0503267182578346E-007   1.2579828673034534E-005
   308.75605885818271      -0.74803373432995124       0.35934409897261438        2.0313685175118070E-007   1.2782965524785714E-005
   328.28142238967371      -0.77038876645057686       0.35932302958472512        2.0123013371475675E-007   1.2984195658500471E-005
   348.97830773305412      -0.79377772998167262       0.35930094838115983        1.9931299253332461E-007   1.3183508651033794E-005
   370.91700619703738      -0.81825208099898683       0.35927780346584565        1.9738677474491560E-007   1.3380895425778709E-005
   394.17202656885962      -0.84386561641038838       0.35925354055308761        1.9545000983789296E-007   1.3576345435616602E-005
   418.82234816299120      -0.87067645810851657       0.35922810108639319        1.9351176718368338E-007   1.3769857202800287E-005
   444.95168905277069      -0.89874522907150145       0.35920142396382210        1.9157272120878641E-007   1.3961429924009073E-005
   472.64879039593694      -0.92813609353119497       0.35917344455525740        1.8963632117407794E-007   1.4151066245183151E-005
   502.00771781969320      -0.95891693039413117       0.35914409454097257        1.8770647243624483E-007   1.4338772717619395E-005
   533.12818088887479      -0.99115954837695130       0.35911330171318706        1.8578725352656837E-007   1.4524559971145964E-005
   566.11587174220733       -1.0249399342894083       0.35908098974896840        1.8388279445712756E-007   1.4708442765603091E-005
   601.08282404673980       -1.0603385253345239       0.35904707796357399        1.8199718089393089E-007   1.4890439946497022E-005
   638.14779348954426       -1.0974411464997007       0.35901148042925096        1.8013750755049440E-007   1.5070577454047517E-005
   677.43666109891694       -1.1363372833414442       0.35897410765549875        1.7830199860446719E-007   1.5248879452651984E-005
   719.08286076485194       -1.1771227759960810       0.35893486403470204        1.7649660435204054E-007   1.5425376057004024E-005
   763.22783241074308       -1.2198991348070547       0.35889364853233513        1.7472471307306547E-007   1.5600100770077090E-005
   810.02150235538772       -1.2647740448241864       0.35885035424549294        1.7298927847762781E-007   1.5773090048554719E-005
   859.62279249671099       -1.3118611721456561       0.35880486864419153        1.7129030066394243E-007   1.5944380349218661E-005
   912.20016004651370       -1.3612827376823888       0.35875707114905842        1.6963463515501430E-007   1.6114014984373675E-005
   967.93216964930457       -1.4131676095732484       0.35870683504817596        1.6802214281512760E-007   1.6282037127188803E-005
   1027.0080998282629       -1.4676529902446085       0.35865402595754259        1.6645428193703039E-007   1.6448491409125833E-005
   1089.6285858179588       -1.5248856233498083       0.35859850075623362        1.6493465944287398E-007   1.6613426068568707E-005
   1156.0063009670364       -1.5850201387032754       0.35854010931733077        1.6345995191575306E-007   1.6776886020484459E-005
   1226.3666790250586       -1.6482224477021359       0.35847869136128019        1.6203263022155048E-007   1.6938918650706008E-005
   1300.9486797665622       -1.7146692605828744       0.35841407709404755        1.6065305481769380E-007   1.7099571705523702E-005
   1380.0056005525560       -1.7845480433761891       0.35834608745105562        1.5931835354966936E-007   1.7258890059073370E-005
   1463.8059365857093       -1.8580613024097212       0.35827453016231159        1.5803331961326050E-007   1.7416923378686630E-005
   1552.6342927808519       -1.9354246173869938       0.35819920193600552        1.5679752880784961E-007   1.7573720907494480E-005
   1646.7923503477032       -2.0168666697971447       0.35811988874863548        1.5560620729495345E-007   1.7729327114789434E-005
   1746.5998913685655       -2.1026327638725575       0.35803636278236728        1.5445817478695877E-007   1.7883785289576392E-005
   1852.3958848506795       -2.1929874745383944       0.35794838026895426        1.5335616083580842E-007   1.8037141450412202E-005
   1964.5396379417205       -2.2882138774126988       0.35785568273088847        1.5229961402214111E-007   1.8189441064434343E-005
   2083.4120162182239       -2.3886133838636376       0.35775799770806782        1.5128336755122866E-007   1.8340724431985571E-005
   2209.4167371913172       -2.4945099642824515       0.35765503529904785        1.5030508357952356E-007   1.8491029515565095E-005
   2342.9817414227964       -2.6062561203511811       0.35754648311405995        1.4937040454957883E-007   1.8640399920114675E-005
   2484.5606459081641       -2.7242240931896200       0.35743201569232574        1.4846943163300962E-007   1.8788869351747685E-005
   2634.6342846626540       -2.8488217504575557       0.35731128007973267        1.4760839480620896E-007   1.8936477746553892E-005
   2793.7123417424132       -2.9804813487094317       0.35718390789443527        1.4677797253531373E-007   1.9083255719089204E-005
   2962.3350822469583       -3.1196759764690376       0.35704950073548336        1.4598290341654278E-007   1.9229238622505746E-005
   3141.0751871817761       -3.2669139305922776       0.35690763719017427        1.4522072073383919E-007   1.9374459343239583E-005
   3330.5396984126828       -3.4227407515850117       0.35675787262427450        1.4448447672202850E-007   1.9518943819961613E-005
   3520.0042096435895       -3.5784168380867474       0.35660866280832326        1.4381698397618198E-007   1.9662760803937796E-005
   3709.4687208744963       -3.7340219321649344       0.35645995348648463        1.4320352499294947E-007   1.9805964328930745E-005
   3898.9332321054030       -3.8896313571589225       0.35631169286711611        1.4263869183443715E-007   1.9948603020765181E-005
   4088.3977433363098       -4.0453104787481715       0.35616383721635181        1.4211475474684129E-007   2.0090717775512023E-005
   4289.2301252410707       -4.2104835321984684       0.35600749828826433        1.4160478526715900E-007   2.0232322560779182E-005
   4490.0625071458317       -4.3758693136092397       0.35585152526614122        1.4112900125569693E-007   2.0373451562034878E-005
   4690.8948890505926       -4.5415242342228472       0.35569588269204266        1.4068410443792453E-007   2.0514135666472804E-005
   4891.7272709553536       -4.7075034084030385       0.35554053545049413        1.4026974078331689E-007   2.0654405407256121E-005
   5092.5596528601145       -4.8738535816076638       0.35538545553676965        1.3988079058112785E-007   2.0794286197837250E-005
   5293.3920347648755       -5.0406185189165580       0.35523061708690357        1.3951460159938177E-007   2.0933800799436634E-005
   5494.2244166696364       -5.2078386641677525       0.35507599678640139        1.3916890734503530E-007   2.1072969706781670E-005
   5695.0567985743974       -5.3755528388140714       0.35492157237423733        1.3884308523891892E-007   2.1211812792020589E-005
   5895.8891804791583       -5.5437930851061799       0.35476732743977929        1.3853235318577301E-007   2.1350345145206361E-005
   6096.7215623839193       -5.7125930330030679       0.35461324376278575        1.3823699178006921E-007   2.1488582136986431E-005
   6297.5539442886802       -5.8819831714922781       0.35445930571546003        1.3795564813755769E-007   2.1626537785123988E-005
   6498.3863261934412       -6.0519919716857880       0.35430549925735222        1.3768710566983555E-007   2.1764224890793823E-005
   6699.2187080982021       -6.2226447263198974       0.35415181299979986        1.3742896086608282E-007   2.1901653851659908E-005
   6912.1010329172486       -6.4042913430985173       0.35398900291615032        1.3717110926079348E-007   2.2038824960920700E-005
   7124.9833577362951       -6.5867196995940915       0.35382630139631943        1.3692194818781689E-007   2.2175746909108517E-005
   7337.8656825553417       -6.7699577127791146       0.35366369626609356        1.3668300197953673E-007   2.2312429911088055E-005
   7550.7480073743882       -6.9540310638415299       0.35350117719603175        1.3645351062658270E-007   2.2448883421714636E-005
   7763.6303321934347       -7.1389624317041234       0.35333873636747704        1.3623142980901733E-007   2.2585114851523655E-005
   7976.5126570124812       -7.3247782768802452       0.35317636253141466        1.3601906926197541E-007   2.2721133920785629E-005
   8189.3949818315277       -7.5114991541027596       0.35301404952880844        1.3581411945571742E-007   2.2856948040241345E-005
   8402.2773066505742       -7.6991460384481556       0.35285179073146522        1.3561606206723422E-007   2.2992564102308579E-005
   8615.1596314696217       -7.8877392704306857       0.35268957998442890        1.3542445416901570E-007   2.3127988556477593E-005
   8828.0419562886691       -8.0772984524053140       0.35252741170483504        1.3523888023819829E-007   2.3263227436715793E-005
   9040.9242811077165       -8.2678424838492148       0.35236528085745417        1.3505895348919610E-007   2.3398286390204990E-005
   9253.8066059267640       -8.4593913207352802       0.35220318147387747        1.3488557606540514E-007   2.3533171966270396E-005
   9466.6889307458114       -8.6519590206142176       0.35204111253256143        1.3471559889353937E-007   2.3667887565163935E-005
   9679.5712555648588       -8.8455644411123302       0.35187906890883430        1.3455034991521253E-007   2.3802437915079148E-005
   9892.4535803839062       -9.0402244582796527       0.35171704713001917        1.3438954668335815E-007   2.3936827461762506E-005
   10105.335905202954       -9.2359552510836433       0.35155504428273748        1.3423289602951651E-007   2.4071060357792024E-005
   10318.218230022001       -9.4327725455899447       0.35139305780851987        1.3408013713380171E-007   2.4205140494925826E-005
   10531.100554841049       -9.6306916868368955       0.35123108544571036        1.3393103449674268E-007   2.4339071529422568E-005
   10743.982879660096       -9.8297276758403918       0.35106912520066219        1.3378537257822498E-007   2.4472856902000792E-005
   10956.865204479143       -10.029893327373124       0.35090717683512529        1.3364171445505534E-007   2.4606498616455848E-005
   11182.520468787334       -10.243354184122719       0.35073549405433435        1.3349516510203037E-007   2.4739993781557878E-005
   11408.175733095524       -10.458119638863449       0.35056381980498263        1.3335114260833192E-007   2.4873344924166208E-005
   11633.830997403715       -10.674208273593324       0.35039215113636157        1.3321123698432656E-007   2.5006556161150534E-005
   11859.486261711905       -10.891632232254903       0.35022049020616386        1.3307263647933112E-007   2.5139628797629865E-005
   12085.141526020096       -11.110409708960049       0.35004883436228257        1.3293676949104245E-007   2.5272565567120908E-005
   12310.796790328286       -11.330556812644316       0.34987718262155620        1.3280350068098901E-007   2.5405369067801898E-005
   12536.452054636477       -11.552089123868644       0.34970553442252755        1.3267266345832228E-007   2.5538041731260220E-005
   12762.107318944667       -11.775021987459276       0.34953388939368379        1.3254411047822739E-007   2.5670585841738449E-005
   12987.762583252857       -11.999370582968581       0.34936224729921689        1.3241770951213536E-007   2.5803003551250585E-005
   13213.417847561048       -12.225149950525479       0.34919060802018470        1.3229333972388086E-007   2.5935296890974467E-005
   13439.073111869238       -12.452375007214973       0.34901897154312972        1.3217088947375283E-007   2.6067467780448220E-005
   13664.728376177429       -12.681060561341937       0.34884733795036327        1.3205025497542039E-007   2.6199518035423641E-005
   13890.383640485619       -12.911219173052316       0.34867570901109551        1.3193016070992326E-007   2.6331448196133563E-005
   14116.038904793810       -13.142870276731150       0.34850408139386430        1.3181312137204845E-007   2.6463261317505612E-005
   14341.694169102000       -13.376026002562728       0.34833245723710399        1.3169758028910736E-007   2.6594958897794721E-005
   14567.349433410191       -13.610700455968352       0.34816083721268376        1.3158343650931426E-007   2.6726542334304033E-005
   14793.004697718381       -13.846908074458618       0.34798922176554903        1.3147064087580027E-007   2.6858012975179832E-005
   15018.659962026572       -14.084663320407518       0.34781761134480826        1.3135913954729309E-007   2.6989372114727126E-005
