 #              _____________________  _______________________             #
 #              ___  __ \__  __ \_  / / /_  /___  ____/_  ___/             #
 #              __  / / /_  /_/ /  / / /_  __/_  __/  _____ \              #
 #              _  /_/ /_  _, _// /_/ / / /_ _  /___  ____/ /              #
 #              /_____/ /_/ |_| \____/  \__/ /_____/  /____/               #
 #                                                                         #
  
 #        time                      T            heat flux [W.L-2]   in    x              directions   cumulative flux
 #-----------------------------------------------------------------------------------------------

   0.0000000000000000        25.000000000000000       -0.0000000000000000        0.0000000000000000     
   1.0000000000000000        24.999997817904212        3.6878828318265348E-004   3.6878828318265348E-004
   2.0600000000000001        24.999990296966001        1.6061223690044841E-003   1.9749106521871375E-003
   3.1836000000000002        24.999974018397729        4.3106047342789189E-003   6.2855153864660564E-003
   4.3746160000000005        24.999944272120899        9.2704647926211865E-003   1.5555980179087242E-002
   5.6370929600000004        24.999895148141846        1.7462691448351140E-002   3.3018671627438378E-002
   6.9753185376000006        24.999819346417183        3.0086022661137749E-002   6.3104694288576124E-002
   8.3938376498560014        24.999707939574893        4.8597254071651809E-002  0.11170194836022793     
   9.8974679088473625        24.999550106602232        7.4750537854839788E-002  0.18645248621506771     
   11.491315983378204        24.999332837482623       0.11063995603105801       0.29709244224612574     
   13.180794942380897        24.999040607896507       0.15874528714118016       0.45583772938730593     
   14.971642638923752        24.998655023781776       0.22198063902017437       0.67781836840748033     
   16.869941197259177        24.998154436462347       0.30374540053937749       0.98156376894685782     
   18.882137669094728        24.997513530140111       0.40797672686213887        1.3895404958089967     
   21.015065929240414        24.996702883593532       0.53920270634893896        1.9287432021579356     
   23.275969884994840        24.995688516135992       0.70259395757617105        2.6313371597341066     
   25.672528078094530        24.994431414567540       0.90401353647536264        3.5353506962094694     
   28.212879762780204        24.992887057782472        1.1500617414160907        4.6854124376255601     
   30.905652548547017        24.991004945771014        1.4481139934664382        6.1335264310919984     
   33.759991701459839        24.988728146340421        1.8063489114337405        7.9398753425257391     
   36.785591203547433        24.985992874567884        2.2337634584349115        10.173638800960651     
   39.992726675760281        24.982728122321838        2.7401717396353273        12.913810540595978     
   43.392290276305900        24.978855357362011        3.3361838106132842        16.249994351209263     
   46.995827692884255        24.974288313406504        4.0331607471332802        20.283155098342544     
   50.815577354457311        24.968932893961956        4.8431422681535441        25.126297366496090     
   54.864511995724754        24.962687213454679        5.7787434345865414        30.905040801082631     
   59.156382715468240        24.955441799069519        6.8530174055797621        37.758058206662390     
   63.705765678396340        24.947079975489775        8.0792819571266392        45.837340163789030     
   68.528111619100116        24.937478452243770        9.4709084810042832        55.308248644793309     
   73.639798316246129        24.926508129444265        11.041073498652224        66.349322143445534     
   79.058186215220900        24.914035132257158        12.802474339499371        79.151796482944903     
   84.801677388134152        24.899922077440277        14.767012517274081        93.918809000218985     
   90.889778031422210        24.884029566842756        16.945450433919294        110.86425943413828     
   97.343164713307544        24.866217893069212        19.347049260393447        130.21130869453174     
   104.18375459610600        24.846348931950029        21.979198066583344        152.19050676111507     
   111.43477987187237        24.824288185523297        24.847046348938530        177.03755311005361     
   119.12086666418472        24.799906928560588        27.953153861380269        204.99070697143387     
   127.26811866403581        24.773084401998585        31.297172907194788        236.28787987862864     
   135.90420578387796        24.743709988768323        34.875578814408492        271.16345869303711     
   145.05845813091065        24.711685302235619        38.681464032918456        309.84492272595560     
   154.76196561876529        24.676926115486371        42.704410039241736        352.54933276519733     
   165.04768355589121        24.639364061547923        46.930448957596077        399.47978172279340     
   175.95054456924470        24.598948141574542        51.342108916895327        450.82189063968872     
   187.50757724339940        24.555645503372421        55.918618579084587        506.74050921877330     
   199.75803187800338        24.509442367902501        60.636134330390092        567.37664354916342     
   212.74351379068358        24.460344218459909        65.468113602053222        632.84475715121664     
   226.50812461812461        24.408375648577309        70.385763274386960        703.23052042560357     
   241.09861209521210        24.353579808595128        75.358558859317455        778.58907928492101     
   256.56452882092486        24.296017483705665        80.354814980470735        858.94389426539169     
   272.95840055018039        24.235765851829910        85.342284931603146        944.28617919699479     
   290.33590458319122        24.172916981993378        90.288765742610039        1034.5749449396048     
   308.75605885818271        24.107576141780648        95.162685382192123        1129.7376303217970     
   328.28142238967371        24.039859985511981        99.933650456592787        1229.6712807783899     
   348.97830773305412        23.969894693048992        104.57293585151437        1334.2442166299043     
   370.91700619703738        23.897814123119538        109.05390190503799        1443.2981185349422     
   394.17202656885962        23.823757990782386        113.35233158854788        1556.6504501234901     
   418.82234816299120        23.747870458327487        117.44665323867065        1674.0971033621609     
   444.95168905277069        23.670298290956016        121.31814086884880        1795.4152442310096     
   472.64879039593694        23.591189602469200        124.95098008079690        1920.3662243118065     
   502.00771781969320        23.510692666452773        128.33227223390068        2048.6984965457073     
   533.12818088887479        23.428954892581203        131.45197445633281        2180.1504710020399     
   566.11587174220733        23.346121958748668        134.30278685625191        2314.4532578582916     
   601.08282404673980        23.262337085671625        136.87999860616398        2451.3332564644556     
   638.14779348954426        23.177740250386943        139.18133641644965        2590.5145928809052     
   677.43666109891694        23.092467840760122        141.20672027725385        2731.7213131581589     
   719.08286076485194        23.006652437135159        142.95803990060784        2874.6793530587665     
   763.22783241074308        22.920422370758061        144.43895337491361        3019.1183064336801     
   810.02150235538772        22.833901447196819        145.65467640510852        3164.7729828387887     
   859.62279249671099        22.747209147422637        146.61171471069406        3311.3846975494826     
   912.20016004651370        22.660459898021962        147.31777036142833        3458.7024679109109     
   967.93216964930457        22.573762977204062        147.78153173961394        3606.4839996505248     
   1027.0080998282629        22.487222596109298        148.01247932641746        3754.4964789769424     
   1089.6285858179588        22.400937214278041        148.02081560179076        3902.5172945787331     
   1156.0063009670364        22.315000642734315        147.81713947343019        4050.3344340521635     
   1226.3666790250586        22.229501787284399        147.41238183052545        4197.7468158826887     
   1300.9486797665622        22.144524461941643        146.81771575959851        4344.5645316422870     
   1380.0056005525560        22.060148766770745        146.04427511132278        4490.6088067536093     
   1463.8059365857093        21.976448666460264        145.10343089221033        4635.7122376458192     
   1552.6342927808519        21.893491524520073        144.00671231396024        4779.7189499597798     
   1646.7923503477032        21.811341184899444        142.76530800040419        4922.4842579601836     
   1746.5998913685655        21.730058733432941        141.38999571345258        5063.8742536736363     
   1852.3958848506795        21.649699086275977        139.89158041385164        5203.7658340874877     
   1964.5396379417205        21.570310242768780        138.28086658471761        5342.0467006722056     
   2083.4120162182239        21.491938095643221        136.56799036308837        5478.6146910352936     
   2209.4167371913172        21.414627857933368        134.76235962987710        5613.3770506651708     
   2342.9817414227964        21.338413758366041        132.87393338971989        5746.2509840548910     
   2484.5606459081641        21.263332780895670        130.91137180642647        5877.1623558613173     
   2634.6342846626540        21.189410994948393        128.88386412261539        6006.0462199839330     
   2793.7123417424132        21.116679354210873        126.79909499859014        6132.8453149825236     
   2962.3350822469583        21.045158977831221        124.66521525615515        6257.5105302386792     
   3141.0751871817761        20.974864565072902        122.49016765758276        6380.0006978962620     
   3330.5396984126828        20.905819666075153        120.28007445863435        6500.2807723548967     
   3520.0042096435895        20.841611335256509        118.16361061675626        6618.4443829716529     
   3709.4687208744963        20.781711981519820        116.13692259312764        6734.5813055647805     
   3898.9332321054030        20.725669057028377        114.19595682103939        6848.7772623858200     
   4088.3977433363098        20.673096661156130        112.33610261920823        6961.1133650050278     
   4289.2301252410707        20.620860936041794        110.45186457888857        7071.5652295839163     
   4490.0625071458317        20.571773212758423        108.64941672617319        7180.2146463100898     
   4690.8948890505926        20.525539657688832        106.92337396996972        7287.1380202800592     
   4891.7272709553536        20.481894388748721        105.26972025493835        7392.4077405349972     
   5092.5596528601145        20.440605963393629        103.68423921026705        7496.0919797452643     
   5293.3920347648755        20.401471396635866        102.16281971561587        7598.2547994608803     
   5494.2244166696364        20.364311259782280        100.70159046822576        7698.9563899291061     
   5695.0567985743974        20.328961603441272        99.297389733054445        7798.2537796621609     
   5895.8891804791583        20.295284029858983        97.946324307479358        7896.2001039696406     
   6096.7215623839193        20.263152394458054        96.645172636167771        7992.8452766058081     
   6297.5539442886802        20.232452182020975        95.391062285934012        8088.2363388917420     
   6498.3863261934412        20.203079798235187        94.181324761593331        8182.4176636533357     
   6699.2187080982021        20.174946051236219        93.012998117585823        8275.4306617709208     
   6912.1010329172486        20.146405584058193        91.819454951288250        8367.2501167222090     
   7124.9833577362951        20.119058039983535        90.667654211875643        8457.9177709340838     
   7337.8656825553417        20.092822390970376        89.555030289259491        8547.4728012233427     
   7550.7480073743882        20.067623664104140        88.479330073773696        8635.9521312971156     
   7763.6303321934347        20.043398178728641        87.437977121526473        8723.3901084186418     
   7976.5126570124812        20.020078506834068        86.429620552409133        8809.8197289710515     
   8189.3949818315277        19.997605463531350        85.452527040254949        8895.2722560113070     
   8402.2773066505742        19.975925929803140        84.504937012002102        8979.7771930233084     
   8615.1596314696217        19.954991330196165        83.585198604070087        9063.3623916273791     
   8828.0419562886691        19.934756896876202        82.691782296651880        9146.0541739240307     
   9040.9242811077165        19.915181235487189        81.823269158919146        9227.8774430829490     
   9253.8066059267640        19.896221057020547        80.978825889263788        9308.8562689722130     
   9466.6889307458114        19.877845193273370        80.156638320761189        9389.0129072929740     
   9679.5712555648588        19.860022067803214        79.355465089897876        9468.3683723828726     
   9892.4535803839062        19.842721083039390        78.574276097055787        9546.9426484799278     
   10105.335905202954        19.825913437139981        77.812109976256068        9624.7547584561835     
   10318.218230022001        19.809572252648209        77.068048167277041        9701.8228066234606     
   10531.100554841049        19.793672481137698        76.341215156003557        9778.1640217794647     
   10743.982879660096        19.778190761614511        75.630780616022548        9853.7948023954868     
   10956.865204479143        19.763110234152229        74.935470973968179        9928.7302733694542     
   11182.520468787334        19.747546281425887        74.215254751116973        10002.945528120572     
   11408.175733095524        19.732379481583457        73.511058978073137        10076.456587098644     
   11633.830997403715        19.717583762992874        72.822557723910094        10149.279144822554     
   11859.486261711905        19.703144536770814        72.148345768459009        10221.427490591013     
   12085.141526020096        19.689045136380958        71.487630285370003        10292.915120876383     
   12310.796790328286        19.675268627432573        70.839812597586075        10363.754933473969     
   12536.452054636477        19.661798823160193        70.204336840110344        10433.959270314079     
   12762.107318944667        19.648620522987997        69.580665687267739        10503.539936001347     
   12987.762583252857        19.635719504646911        68.968282506401579        10572.508218507748     
   13213.417847561048        19.623082460212615        68.366694912185920        10640.874913419933     
   13439.073111869238        19.610696926841985        67.775436286656145        10708.650349706590     
   13664.728376177429        19.598551223024600        67.194065789021423        10775.844415495611     
   13890.383640485619        19.586639603572522        66.621662446482233        10842.466077942092     
   14116.038904793810        19.574947096076812        66.058441354299092        10908.524519296390     
   14341.694169102000        19.563462564091950        65.504113098054518        10974.028632394446     
   14567.349433410191        19.552176826452175        64.958272930028372        11038.986905324475     
   14793.004697718381        19.541081556170283        64.420538554857004        11103.407443879332     
   15018.659962026572        19.530168943250160        63.890567382481521        11167.298011261813     
   15244.315226334762        19.519431605499328        63.368049483687209        11230.666060745501     
   15469.970490642952        19.508862560675986        62.852700057677900        11293.518760803179     
   15695.625754951143        19.498455209775290        62.344254466921370        11355.863015270101     
   15921.281019259333        19.488203320539146        61.842465151589444        11417.705480421690     
   16146.936283567524        19.478101009837452        61.347099614675976        11479.052580036365     
   16372.591547875714        19.468142725424091        60.857938989164438        11539.910519025529     
   16598.246812183905        19.458323227675681        60.374776929395892        11600.285295954924     
   16823.902076492093        19.448637571733954        59.897418694165161        11660.182714649089     
   17049.557340800282        19.439075942573581        59.426179030735859        11719.608893679824     
   17275.212605108471        19.429638556336151        58.960285536412123        11778.569179216236     
   17500.867869416659        19.420322694988343        58.499496299653160        11837.068675515889     
   17726.523133724848        19.411124531814245        58.043711381399099        11895.112386897288     
   17952.178398033037        19.402040158705979        57.592836325662624        11952.705223222951     
   18177.833662341225        19.393065864623438        57.146764062262108        12009.851987285212     
   18403.488926649414        19.384198176519405        56.705380331363671        12066.557367616575     
   18629.144190957602        19.375433844556461        56.268569534970752        12122.825937151545     
   18854.799455265791        19.366769819704253        55.836218143635001        12178.662155295180     
   19080.454719573980        19.358203233839642        55.408216359404605        12234.070371654585     
   19306.109983882168        19.349731383364883        54.984458824602491        12289.054830479188     
   19531.765248190357        19.341351715646312        54.564844846270439        12343.619675325459     
   19757.420512498546        19.333061817512913        54.149278380872545        12397.768953706331     
   19983.075776806734        19.324859405258870        53.737667902287420        12451.506621608618     
   20208.731041114923        19.316742315776423        53.329926215153904        12504.836547823772     
   20434.386305423111        19.308708498571242        52.925970245240947        12557.762518069014     
   20660.041569731300        19.300756008492293        52.525720823304333        12610.288238892319     
   20885.696834039489        19.292882999059742        52.129102470979397        12662.417341363298     
   21111.352098347677        19.285087716306180        51.736043193192231        12714.153384556490     
   21337.007362655866        19.277368493068710        51.346474279263163        12765.499858835754     
   21562.662626964055        19.269723743682295        50.960330113758147        12816.460188949512     
   21788.317891272243        19.262156913413264        50.577068294121354        12867.037257243634     
   22027.512471438924        19.254216969254013        50.174641975080462        12917.211899218713     
   22266.707051605605        19.246354417822598        49.776033191932200        12966.987932410646     
   22505.901631772285        19.238567961895029        49.381113843888173        13016.369046254535     
   22745.096211938966        19.230856349893969        48.989769439704908        13065.358815694239     
   22984.290792105647        19.223218387307490        48.601910058777435        13113.960725753017     
   23223.485372272327        19.215652893040307        48.217462528015552        13162.178188281032     
