 #              _____________________  _______________________             #
 #              ___  __ \__  __ \_  / / /_  /___  ____/_  ___/             #
 #              __  / / /_  /_/ /  / / /_  __/_  __/  _____ \              #
 #              _  /_/ /_  _, _// /_/ / / /_ _  /___  ____/ /              #
 #              /_____/ /_/ |_| \____/  \__/ /_____/  /____/               #
 #                                                                         #
  
 #        time                      h  [L]                   theta [-]       Darcian flow [L.T^{-1}]   in    x              directions   cumulative flux
 #-----------------------------------------------------------------------------------------------

   0.0000000000000000      -0.20000000000000001       0.35984249177530825        1.2548996820743664E-024   1.2548996820743664E-024
   1.0000000000000000      -0.20037383261566091       0.35984217198658824        7.4052198436966601E-009   7.4052198436966618E-009
   2.0600000000000001      -0.20133585974111648       0.35984134881153462        2.2842471128703564E-008   3.0247690972400224E-008
   3.1836000000000002      -0.20286931058605495       0.35984003602004283        4.2540611000770709E-008   7.2788301973170933E-008
   4.3746160000000005      -0.20486563182023504       0.35983832574329311        6.2895960256305655E-008   1.3568426222947659E-007
   5.6370929600000004      -0.20721806795733866       0.35983630862303939        8.1790012748039026E-008   2.1747427497751561E-007
   6.9753185376000006      -0.20985022096417039       0.35983404943201519        9.8289971067933938E-008   3.1576424604544958E-007
   8.3938376498560014      -0.21271503699653221       0.35983158790893055        1.1213832103519470E-007   4.2790256708064427E-007
   9.8974679088473625      -0.21578642467593584       0.35982894588421638        1.2341103479547189E-007   5.5131360187611616E-007
   11.491315983378204      -0.21905151889582866       0.35982613386638440        1.3233404169698669E-007   6.8364764357310285E-007
   13.180794942380897      -0.22250528851709664       0.35982315563737466        1.3919109151603291E-007   8.2283873508913581E-007
   14.971642638923752      -0.22614721354079731       0.35982001108653727        1.4427765563840467E-007   9.6711639072754050E-007
   16.869941197259177      -0.22997939033304218       0.35981669782728865        1.4787754409858678E-007   1.1149939348261273E-006
   18.882137669094728      -0.23400551658094654       0.35981321206263545        1.5025116176245791E-007   1.2652450965885853E-006
   21.015065929240414      -0.23823027931042509       0.35980954910714746        1.5162927870813295E-007   1.4168743752967182E-006
   23.275969884994840      -0.24265937868926937       0.35980570336040013        1.5221380602763792E-007   1.5690881813243562E-006
   25.672528078094530      -0.24729918573175619       0.35980166859839646        1.5217576626526552E-007   1.7212639475896217E-006
   28.212879762780204      -0.25215676390805958       0.35979743795018071        1.5165791389658432E-007   1.8729218614862059E-006
   30.905652548547017      -0.25723985477933664       0.35979300390546620        1.5077737201317149E-007   2.0236992334993775E-006
   33.759991701459839      -0.26255687704863567       0.35978835831045186        1.4962868344195232E-007   2.1733279169413298E-006
   36.785591203547433      -0.26811693275611015       0.35978349235721241        1.4828699740830569E-007   2.3216149143496353E-006
   39.992726675760281      -0.27392981905682917       0.35977839656797789        1.4681119351739127E-007   2.4684261078670266E-006
   43.392290276305900      -0.28000604568162907       0.35977306077417037        1.4524680214897046E-007   2.6136729100159969E-006
   46.995827692884255      -0.28635685842464126       0.35976747408984694        1.4362862789325084E-007   2.7573015379092477E-006
   50.815577354457311      -0.29299426871463791       0.35976162487944152        1.4198302382993933E-007   2.8992845617391872E-006
   54.864511995724754      -0.29993108891687842       0.35975550072005907        1.4032979899673553E-007   3.0396143607359226E-006
   59.156382715468240      -0.30718097264803035       0.35974908835889713        1.3868376858570037E-007   3.1782981293216231E-006
   63.705765678396340      -0.31475845912923217       0.35974237366660783        1.3705597595771566E-007   3.3153541052793387E-006
   68.528111619100116      -0.32267902046224123       0.35973534158754972        1.3545462781137317E-007   3.4508087330907120E-006
   73.639798316246129      -0.33095911068103351       0.35972797608792262        1.3388578967615508E-007   3.5846945227668672E-006
   79.058186215220900      -0.33961621548978832       0.35972026010274644        1.3235388958480427E-007   3.7170484123516716E-006
   84.801677388134152      -0.34866890173095494       0.35971217548254275        1.3086207473647707E-007   3.8479104870881487E-006
   90.889778031422210      -0.35813686581888965       0.35970370294042675        1.2941246056175164E-007   3.9773229476498999E-006
   97.343164713307544      -0.36804098061211471       0.35969482200012015        1.2800630503147589E-007   4.1053292526813755E-006
   104.18375459610600      -0.37840334046874180       0.35968551094516621        1.2664413423089138E-007   4.2319733869122665E-006
   111.43477987187237      -0.38924730452333411       0.35967574676937675        1.2532583878251539E-007   4.3572992256947820E-006
   119.12086666418472      -0.40059753852711238       0.35966550512827139        1.2405075502163059E-007   4.4813499807164122E-006
   127.26811866403581      -0.41248005589321812       0.35965476029100746        1.2281774007330159E-007   4.6041677207897139E-006
   135.90420578387796      -0.42492225886958790       0.35964348509203753        1.2162524617289962E-007   4.7257929669626138E-006
   145.05845813091065      -0.43795298100760405       0.35963165088150667        1.2047139665137083E-007   4.8462643636139846E-006
   154.76196561876529      -0.45160253228923308       0.35961922747321590        1.1935406386578630E-007   4.9656184274797709E-006
   165.04768355589121      -0.46590274840457130       0.35960618308884384        1.1827094788526924E-007   5.0838893753650397E-006
   175.95054456924470      -0.48088736491922968       0.35959248400492483        1.1722051811168444E-007   5.2011098934767240E-006
   187.50757724339940      -0.49659122102173908       0.35957809526963996        1.1619931026672115E-007   5.3173092037434454E-006
   199.75803187800338      -0.51305105756291769       0.35956297996466879        1.1520486504879383E-007   5.4325140687922391E-006
   212.74351379068358      -0.53030543895423876       0.35954709926558542        1.1423504919300492E-007   5.5467491179852441E-006
   226.50812461812461      -0.54839482497695091       0.35953041236600114        1.1328783591591802E-007   5.6600369539011623E-006
   241.09861209521210      -0.56736166740240479       0.35951287637925045        1.1236133881793090E-007   5.7723982927190930E-006
   256.56452882092486      -0.58725052395331789       0.35949444622437221        1.1145385972578961E-007   5.8838521524448826E-006
   272.95840055018039      -0.60810818563566449       0.35947507450002736        1.1056391447608255E-007   5.9944160669209656E-006
   290.33590458319122      -0.62998381651336965       0.35945471134724660        1.0969024065556899E-007   6.1041063075765345E-006
   308.75605885818271      -0.65292910555846984       0.35943330430142667        1.0883179282021295E-007   6.2129381003967477E-006
   328.28142238967371      -0.67699843022749961       0.35941079813401094        1.0798772914950862E-007   6.3209258295462561E-006
   348.97830773305412      -0.70224903138169670       0.35938713468437011        1.0715739252312034E-007   6.4280832220693761E-006
   370.91700619703738      -0.72874119916370650       0.35936225268245081        1.0634028845153780E-007   6.5344235105209138E-006
   394.17202656885962      -0.75653818839107856       0.35933608782765231        1.0553550928876915E-007   6.6399590198096827E-006
   418.82234816299120      -0.78570717186252348       0.35930857189268961        1.0474358692403362E-007   6.7447026067337164E-006
   444.95168905277069      -0.81631883421934459       0.35927963310695477        1.0396431324960453E-007   6.8486669199833207E-006
   472.64879039593694      -0.84844771856183898       0.35924919583617765        1.0319750379351839E-007   6.9518644237768390E-006
   502.00771781969320      -0.88217249148040888       0.35921718034128025        1.0244310745998737E-007   7.0543075312368260E-006
   533.12818088887479      -0.91757619239279686       0.35918350255559445        1.0170114995032866E-007   7.1560086811871547E-006
   566.11587174220733      -0.95474648755974090       0.35914807386206349        1.0097170068423668E-007   7.2569803818713911E-006
   601.08282404673980      -0.99377593247247842       0.35911080086776981        1.0025485610308623E-007   7.3572352379744770E-006
   638.14779348954426       -1.0347625732273555       0.35907158486008783        9.9551225005092096E-008   7.4567864629795688E-006
   677.43666109891694       -1.0778093466812366       0.35903032241918431        9.8860181737683596E-008   7.5556466447172526E-006
   719.08286076485194       -1.1230251257924859       0.35898690446693954        9.8181995070649238E-008   7.6538286397879013E-006
   763.22783241074308       -1.1705248622258022       0.35894121618690444        9.7516882244484646E-008   7.7513455220323867E-006
   810.02150235538772       -1.2204298676108143       0.35889313682337454        9.6864964486745117E-008   7.8482104865191310E-006
   859.62279249671099       -1.2728677891501876       0.35884253978863045        9.6225873063120028E-008   7.9444363595822504E-006
   912.20016004651370       -1.3279739159965287       0.35878929150065303        9.5600311212985388E-008   8.0400366707952364E-006
   967.93216964930457       -1.3858907346818894       0.35873325192462341        9.4988072691240043E-008   8.1350247434864761E-006
   1027.0080998282629       -1.4467685358238591       0.35867427412010111        9.4388965765989236E-008   8.2294137092524658E-006
   1089.6285858179588       -1.5107663213657878       0.35861220351536743        9.3803211985810886E-008   8.3232169212382772E-006
   1156.0063009670364       -1.5780512191852749       0.35854687865177443        9.3229842621310291E-008   8.4164467638595876E-006
   1226.3666790250586       -1.6488000203104303       0.35847812989610822        9.2668647233774354E-008   8.5091154110933622E-006
   1300.9486797665622       -1.7231995885698370       0.35840577927310951        9.2119172990571635E-008   8.6012345840839333E-006
   1380.0056005525560       -1.8014469136944562       0.35832964067819417        9.1580203916814922E-008   8.6928147880007487E-006
   1463.8059365857093       -1.8837516212187235       0.35824951773551994        9.1051827406168784E-008   8.7838666154069167E-006
   1552.6342927808519       -1.9703359908653337       0.35816520411932123        9.0533300265575253E-008   8.8743999156724924E-006
   1646.7923503477032       -2.0614348459850595       0.35807648404939979        9.0022712079011722E-008   8.9644226277515047E-006
   1746.5998913685655       -2.1572975509612449       0.35798313078547195        8.9518650993004911E-008   9.0539412787445096E-006
   1852.3958848506795       -2.2581906192472103       0.35788490458537953        8.9020654412044540E-008   9.1429619331565540E-006
   1964.5396379417205       -2.3643984683881185       0.35778155253743926        8.8527682097074894E-008   9.2314896152536294E-006
   2083.4120162182239       -2.4762235049537771       0.35767280912203298        8.8037488548118560E-008   9.3195271038017481E-006
   2209.4167371913172       -2.5939887323929960       0.35755839440473047        8.7548313840252390E-008   9.4070754176420003E-006
   2342.9817414227964       -2.7180430860673144       0.35743800968926648        8.7060604005258507E-008   9.4941360216472581E-006
   2484.5606459081641       -2.8487576494332965       0.35731134214680443        8.6571198624393373E-008   9.5807072202716519E-006
   2634.6342846626540       -2.9865348167833510       0.35717805701628058        8.6080806861413673E-008   9.6667880271330649E-006
   2793.7123417424132       -3.1318042294183051       0.35703780278828895        8.5586563999137460E-008   9.7523745911322022E-006
   2962.3350822469583       -3.2850324941181697       0.35689020323033699        8.5089254106244385E-008   9.8374638452384460E-006
   3141.0751871817761       -3.4467233889967015       0.35673485884077460        8.4588316516135302E-008   9.9220521617545817E-006
   3330.5396984126828       -3.6174183867670546       0.35657134820096176        8.4081660882515974E-008   1.0006133822637098E-005
   3520.0042096435895       -3.7875307960259512       0.35640891957949317        8.3601598128834407E-008   1.0089735420765932E-005
   3709.4687208744963       -3.9571614203213712       0.35624749755124696        8.3141481595286524E-008   1.0172876902361219E-005
   3898.9332321054030       -4.1264033675955041       0.35608701178797780        8.2699914109428873E-008   1.0255576816470648E-005
   4088.3977433363098       -4.2953402656346622       0.35592739918033556        8.2275096231664707E-008   1.0337851912702313E-005
   4289.2301252410707       -4.4741677458136602       0.35575909664340521        8.1842447726700475E-008   1.0419694360429014E-005
   4490.0625071458317       -4.6528290908792798       0.35559164046252945        8.1428289782067475E-008   1.0501122650211081E-005
   4690.8948890505926       -4.8313986542185257       0.35542497505489118        8.1029840924097838E-008   1.0582152491135179E-005
   4891.7272709553536       -5.0099477505202543       0.35525904674674452        8.0647308321619151E-008   1.0662799799456799E-005
   5092.5596528601145       -5.1885403858207244       0.35509380793741219        8.0279327375392120E-008   1.0743079126832191E-005
   5293.3920347648755       -5.3672353938210149       0.35492921522305604        7.9925105422040300E-008   1.0823004232254231E-005
   5494.2244166696364       -5.5460870561660478       0.35476522892043422        7.9583989372960485E-008   1.0902588221627191E-005
   5695.0567985743974       -5.7251467947876682       0.35460181159822179        7.9255931469256630E-008   1.0981844153096447E-005
   5895.8891804791583       -5.9044595909511308       0.35443893140442262        7.8939219485068720E-008   1.1060783372581516E-005
   6096.7215623839193       -6.0840686186471977       0.35427655787134882        7.8633830226418518E-008   1.1139417202807935E-005
   6297.5539442886802       -6.2640140955045913       0.35411466301250361        7.8339338522126944E-008   1.1217756541330062E-005
   6498.3863261934412       -6.4443334786265742       0.35395322117379613        7.8055258765012579E-008   1.1295811800095075E-005
   6699.2187080982021       -6.6250604163311495       0.35379220998308297        7.7780558667640711E-008   1.1373592358762716E-005
   6912.1010329172486       -6.8171335535149904       0.35362196546707669        7.7501044469179915E-008   1.1451093403231897E-005
   7124.9833577362951       -7.0097414469605166       0.35345215387589596        7.7231436626278458E-008   1.1528324839858175E-005
   7337.8656825553417       -7.2029174498238788       0.35328275427482320        7.6971435488644954E-008   1.1605296275346821E-005
   7550.7480073743882       -7.3966935626278065       0.35311374685616914        7.6720651390019120E-008   1.1682016926736840E-005
   7763.6303321934347       -7.5910983953357292       0.35294511472347129        7.6478087815935975E-008   1.1758495014552775E-005
   7976.5126570124812       -7.7861621009032600       0.35277683961355422        7.6244484790354651E-008   1.1834739499343129E-005
   8189.3949818315277       -7.9819115131094724       0.35260890613444962        7.6018970337397136E-008   1.1910758469680526E-005
   8402.2773066505742       -8.1783719679741118       0.35244130017347852        7.5801075126552174E-008   1.1986559544807078E-005
   8615.1596314696217       -8.3755675616097580       0.35227400867597936        7.5590443181699535E-008   1.2062149987988777E-005
   8828.0419562886691       -8.5735212437775665       0.35210701956604057        7.5386746010451768E-008   1.2137536733999230E-005
   9040.9242811077165       -8.7722549104651417       0.35194032166761613        7.5189669661282954E-008   1.2212726403660512E-005
   9253.8066059267640       -8.9717910534656831       0.35177390333071035        7.4999459614302988E-008   1.2287725863274815E-005
   9466.6889307458114       -9.1721479167236257       0.35160775647146475        7.4814757336474684E-008   1.2362540620611289E-005
   9679.5712555648588       -9.3733447188837555       0.35144187219608186        7.4635713144756712E-008   1.2437176333756046E-005
   9892.4535803839062       -9.5754000563741126       0.35127624214617897        7.4462170465734769E-008   1.2511638504221781E-005
   10105.335905202954       -9.7783318117091742       0.35111085857371133        7.4293889281439612E-008   1.2585932393503220E-005
   10318.218230022001       -9.9821572303061821       0.35094571427570981        7.4130627155927636E-008   1.2660063020659147E-005
   10531.100554841049       -10.186892984274792       0.35078080254039690        7.3972152750751405E-008   1.2734035173409899E-005
   10743.982879660096       -10.392555224650664       0.35061611710321261        7.3818246647951192E-008   1.2807853420057850E-005
   10956.865204479143       -10.599157958843879       0.35045165343256263        7.3668175832478719E-008   1.2881521595890329E-005
   11182.520468787334       -10.819235375666278       0.35027753055777533        7.3514983573760807E-008   1.2955036579464090E-005
   11408.175733095524       -11.040407872623046       0.35010364210352712        7.3365837737450774E-008   1.3028402417201541E-005
   11633.830997403715       -11.262693734095203       0.34992998154655203        7.3221307622625577E-008   1.3101623724824167E-005
   11859.486261711905       -11.486107625869998       0.34975654522650285        7.3080274130077187E-008   1.3174703998954243E-005
   12085.141526020096       -11.710665853024357       0.34958332822232713        7.2942944042988658E-008   1.3247646942997232E-005
   12310.796790328286       -11.936384546316281       0.34941032578614695        7.2809255271623070E-008   1.3320456198268856E-005
   12536.452054636477       -12.163279486821420       0.34923753347914843        7.2679054739219718E-008   1.3393135253008075E-005
   12762.107318944667       -12.391366150304870       0.34906494713596337        7.2552178948182853E-008   1.3465687431956257E-005
   12987.762583252857       -12.620659745473759       0.34889256283439174        7.2428470639310680E-008   1.3538115902595569E-005
   13213.417847561048       -12.851175242686550       0.34872037687284801        7.2307781036001085E-008   1.3610423683631570E-005
   13439.073111869238       -13.082927397803221       0.34854838575178337        7.2189969526241221E-008   1.3682613653157811E-005
   13664.728376177429       -13.315930773198149       0.34837658615746736        7.2074903060514940E-008   1.3754688556218326E-005
   13890.383640485619       -13.550197837185388       0.34820497634905329        7.1961972037303355E-008   1.3826650528255629E-005
   14116.038904793810       -13.785744927535804       0.34803355178646095        7.1851955600070429E-008   1.3898502483855699E-005
   14341.694169102000       -14.022586262560774       0.34786230954166358        7.1744446763799374E-008   1.3970246930619498E-005
   14567.349433410191       -14.260735714376640       0.34769124698169007        7.1639228169625326E-008   1.4041886158789123E-005
   14793.004697718381       -14.500207075804569       0.34752036157332544        7.1536176880678329E-008   1.4113422335669802E-005
   15018.659962026572       -14.741014064223604       0.34734965088098163        7.1435195777031759E-008   1.4184857531446834E-005
