 #              _____________________  _______________________             #
 #              ___  __ \__  __ \_  / / /_  /___  ____/_  ___/             #
 #              __  / / /_  /_/ /  / / /_  __/_  __/  _____ \              #
 #              _  /_/ /_  _, _// /_/ / / /_ _  /___  ____/ /              #
 #              /_____/ /_/ |_| \____/  \__/ /_____/  /____/               #
 #                                                                         #
  
 #        time                      T            heat flux [W.L-2]   in    x              directions   cumulative flux
 #-----------------------------------------------------------------------------------------------

   0.0000000000000000        25.000000000000000       -0.0000000000000000        0.0000000000000000     
   1.0000000000000000        25.000000000000000       -0.0000000000000000        0.0000000000000000     
   2.0600000000000001        24.999999996074923        2.0367629360862320E-007   2.0367629360862320E-007
   3.1836000000000002        24.999999986060335        6.2582593329807370E-007   8.2950222690669687E-007
   4.3746160000000005        24.999999970138912        1.1669118649137989E-006   1.9964140918204959E-006
   5.6370929600000004        24.999999949390954        1.7330489043843030E-006   3.7294629962047987E-006
   6.9753185376000006        24.999999924864237        2.2687197187565268E-006   5.9981827149613258E-006
   8.3938376498560014        24.999999897295908        2.7487783782476046E-006   8.7469610932089313E-006
   9.8974679088473625        24.999999867124391        3.1654778709366808E-006   1.1912438964145612E-005
   11.491315983378204        24.999999834573011        3.5198171488559608E-006   1.5432256113001572E-005
   13.180794942380897        24.999999799727238        3.8168700911000963E-006   1.9249126204101668E-005
   14.971642638923752        24.999999762588907        4.0634077080881036E-006   2.3312533912189772E-005
   16.869941197259177        24.999999723109880        4.2666962585258227E-006   2.7579230170715595E-005
   18.882137669094728        24.999999681211474        4.4338552385170226E-006   3.2013085409232617E-005
   21.015065929240414        24.999999636794982        4.5715155394532261E-006   3.6584600948685841E-005
   23.275969884994840        24.999999589746970        4.6856515467652528E-006   4.1270252495451091E-005
   25.672528078094530        24.999999539941797        4.7815008130669370E-006   4.6051753308518026E-005
   28.212879762780204        24.999999487242654        4.8635519789286221E-006   5.0915305287446645E-005
   30.905652548547017        24.999999431501905        4.9355677234075259E-006   5.5850873010854169E-005
   33.759991701459839        24.999999372561057        5.0006439522576287E-006   6.0851516963111795E-005
   36.785591203547433        24.999999310250590        5.0612828772500464E-006   6.5912799840361845E-005
   39.992726675760281        24.999999244389752        5.1194624717254513E-006   7.1032262312087301E-005
   43.392290276305900        24.999999174786169        5.1767337083674605E-006   7.6208996020454766E-005
   46.995827692884255        24.999999101235552        5.2342839751418026E-006   8.1443279995596572E-005
   50.815577354457311        24.999999023521188        5.2930312932630790E-006   8.6736311288859657E-005
   54.864511995724754        24.999998941413441        5.3536732380621237E-006   9.2089984526921785E-005
   59.156382715468240        24.999998854669112        5.4167696816875781E-006   9.7506754208609369E-005
   63.705765678396340        24.999998763030678        5.4827947337798782E-006   1.0298954894238925E-004
   68.528111619100116        24.999998666225366        5.5522068009849994E-006   1.0854175574337426E-004
   73.639798316246129        24.999998563963924        5.6255488445344730E-006   1.1416730458790873E-004
   79.058186215220900        24.999998455939025        5.7035806477756472E-006   1.1987088523568439E-004
   84.801677388134152        24.999998341822966        5.7875131531659412E-006   1.2565839838885032E-004
   90.889778031422210        24.999998221264136        5.8794137203221857E-006   1.3153781210917251E-004
   97.343164713307544        24.999998093881498        5.9829043053127811E-006   1.3752071641448530E-004
   104.18375459610600        24.999997959255516        6.1043844823416234E-006   1.4362510089682693E-004
   111.43477987187237        24.999997816913094        6.2551573876135021E-006   1.4988025828444043E-004
   119.12086666418472        24.999997666302249        6.4550601308610507E-006   1.5633531841530149E-004
   127.26811866403581        24.999997506749583        6.7386435276262032E-006   1.6307396194292770E-004
   135.90420578387796        24.999997337389043        7.1655360756039895E-006   1.7023949801853170E-004
   145.05845813091065        24.999997157043410        7.8376302781180062E-006   1.7807712829664971E-004
   154.76196561876529        24.999996964028863        8.9272683112540023E-006   1.8700439660790372E-004
   165.04768355589121        24.999996755835618        1.0722899688175847E-005   1.9772729629607958E-004
   175.95054456924470        24.999996528611948        1.3702096559597964E-005   2.1142939285567755E-004
   187.50757724339940        24.999996276339548        1.8646878920947057E-005   2.3007627177662460E-004
   199.75803187800338        24.999995989531296        2.6823440215650839E-005   2.5689971199227546E-004
   212.74351379068358        24.999995653219482        4.0258259126346695E-005   2.9715797111862214E-004
   226.50812461812461        24.999995243772663        6.2157547695562644E-005   3.5931551881418478E-004
   241.09861209521210        24.999994724192604        9.7532176752679239E-005   4.5684769556686401E-004
   256.56452882092486        24.999994036968914        1.5411874834114756E-004   6.1096644390801159E-004
   272.95840055018039        24.999993093536844        2.4371339478079765E-004   8.5467983868880927E-004
   290.33590458319122        24.999991758912518        3.8407285806840686E-004   1.2387526967572162E-003
   308.75605885818271        24.999989829629726        6.0157860133358500E-004   1.8403312980908013E-003
   328.28142238967371        24.999987002539630        9.3490489366132481E-004   2.7752361917521263E-003
   348.97830773305412        24.999982831381004        1.4399769393946813E-003   4.2152131311468076E-003
   370.91700619703738        24.999976667305059        2.1965443998439565E-003   6.4117575309907641E-003
   394.17202656885962        24.999967578785419        3.3167212886553413E-003   9.7284788196461049E-003
   418.82234816299120        24.999954245626252        4.9558445936881369E-003   1.4684323413334241E-002
   444.95168905277069        24.999934821190173        7.3259694974936391E-003   2.2010292910827879E-002
   472.64879039593694        24.999906756618813        1.0712236012331280E-002   3.2722528923159161E-002
   502.00771781969320        24.999866580850810        1.5492198981021927E-002   4.8214727904181090E-002
   533.12818088887479        24.999809630798577        2.2158003142713746E-002   7.0372731046894843E-002
   566.11587174220733        24.999729727265134        3.1341005959681895E-002  0.10171373700657674     
   601.08282404673980        24.999618794172950        4.3838110826968049E-002  0.14555184783354480     
   638.14779348954426        24.999466421490247        6.0638691031087370E-002  0.20619053886463218     
   677.43666109891694        24.999259375851565        8.2950590622701201E-002  0.28914112948733339     
   719.08286076485194        24.998981067152958       0.11222332369992917       0.40136445318726255     
   763.22783241074308        24.998610984181596       0.15016630145140639       0.55153075463866896     
   810.02150235538772        24.998124116891287       0.19875978680861534       0.75029054144728424     
   859.62279249671099        24.997490388179283       0.26025622706661955        1.0105467685139038     
   912.20016004651370        24.996674120855360       0.33716991744533659        1.3477166859592404     
   967.93216964930457        24.995633568885314       0.43225333325604925        1.7799700192152896     
   1027.0080998282629        24.994320542641510       0.54845914002015617        2.3284291592354460     
   1089.6285858179588        24.992680157184122       0.68888770665832710        3.0173168658937732     
   1156.0063009670364        24.990650729835654       0.85672087542253117        3.8740377413163043     
   1226.3666790250586        24.988163848672009        1.0551437010664335        4.9291814423827383     
   1300.9486797665622        24.985144627272891        1.2872567736608065        6.2164382160435450     
   1380.0056005525560        24.981512153546817        1.5559825001100323        7.7724207161535777     
   1463.8059365857093        24.977180132179473        1.8639692669499281        9.6363899831035056     
   1552.6342927808519        24.972057711812244        2.2134976912959541        11.849887674399460     
   1646.7923503477032        24.966050480004505        2.6063931638423887        14.456280838241849     
   1746.5998913685655        24.959061601873170        3.0439486023996638        17.500229440641512     
   1852.3958848506795        24.950993071526948        3.5268608692739503        21.027090309915462     
   1964.5396379417205        24.941747046309533        4.0551831388999524        25.082273448815414     
   2083.4120162182239        24.931227219496119        4.6282956043075849        29.710569053122999     
   2209.4167371913172        24.919340200433357        5.2448947811776803        34.955463834300680     
   2342.9817414227964        24.905996861636595        5.9030015520210046        40.858465386321683     
   2484.5606459081641        24.891113618072069        6.5999868886942119        47.458452275015894     
   2634.6342846626540        24.874613606053657        7.3326134598270380        54.791065734842931     
   2793.7123417424132        24.856427732679666        8.0970906946769290        62.888156429519860     
   2962.3350822469583        24.836495570501441        8.8891404162096350        71.777296845729495     
   3141.0751871817761        24.814766075890276        9.7040698869456232        81.481366732675113     
   3330.5396984126828        24.791198114294680        10.536849014322582        92.018215746997697     
   3531.3720803174438        24.765760767519225        11.382189193823454        103.40040494082115     
   3744.2544051364907        24.738433432248669        12.234619561353195        115.63502450217435     
   3969.9096694446803        24.709205685161876        13.088559363776101        128.72358386595045     
   4209.1042496113614        24.678076918256131        13.938384168477485        142.66196803442793     
   4462.6505045880431        24.645055741896023        14.778484949194871        157.44045298362281     
   4731.4095348633255        24.610159162114353        15.603319313400361        173.04377229702317     
   5016.2941069551252        24.573411552432773        16.407455028473720        189.45122732549689     
   5318.2717533724335        24.534843408063679        17.185608381153571        206.63683570665046     
   5638.3680585747798        24.494489935208090        17.932677066886761        224.56951277353721     
   5977.6701420892668        24.452389503619692        18.643769517077814        243.21328229061504     
   6337.3303506146231        24.408581999931169        19.314233411260577        262.52751570187564     
   6718.5701716515005        24.363107140329795        19.939683330621083        282.46719903249675     
   7122.6843819505912        24.316002843373418        20.516027672679389        302.98322670517615     
   7551.0454448676273        24.267303679608411        21.039498803865495        324.02272550904166     
   8005.1081715596856        24.217039502903212        21.506683767468484        345.52940927651014     
   8486.4146618532668        24.165234273723470        21.914561048754262        367.44397032526439     
   8996.5995415644629        24.111905098729068        22.260540911858634        389.70451123712303     
   9537.3955140583312        24.057061554710970        22.542507447484802        412.24701868460784     
   10110.639244901831        24.000705436877873        22.758849886077904        435.00586857068572     
   10718.277599595942        23.942830950580664        22.908487781877454        457.91435635256317     
   11362.374255571698        23.883425368855619        22.990884996252113        480.90524134881531     
   12045.116710906001        23.822469895843323        23.006071791134040        503.91131313994936     
   12768.823713560361        23.759940666941723        22.954665010704268        526.86597815065363     
   13535.953136373984        23.695810435733470        22.837845141112162        549.70382329176584     
   14349.110324556425        23.630050885530892        22.657308346340784        572.36113163810660     
   15211.056944029811        23.562634369496514        22.415268347303915        594.77639998541054     
   16124.720360671601        23.493536584777829        22.114379970997341        616.89077995640787     
   17093.203582311897        23.422738702281368        21.757711562865172        638.64849151927308     
   18093.203582311897        23.352048441213157        21.359811780399749        660.00830329967278     
   19093.203582311897        23.283603607442238        20.940718847494129        680.94902214716694     
   20093.203582311897        23.217262833603055        20.507136103582315        701.45615825074924     
   21093.203582311897        23.152904245109973        20.064384697597522        721.52054294834682     
   22093.203582311897        23.090422247743916        19.616678243877761        741.13722119222462     
   23093.203582311897        23.029724595145904        19.167341724155360        760.30456291637995     
   24093.203582311897        22.970730003901217        18.718987209638929        779.02355012601890     
   25093.203582311897        22.913366524185822        18.273637363026424        797.29718748904531     
   26093.203582311897        22.857569446464936        17.832876335621094        815.13006382466642     
   27093.203582311897        22.803280027177642        17.397930839259232        832.52799466392571     
   28093.203582311897        22.750444618942090        16.969731641263962        849.49772630518964     
   29093.203582311897        22.699013908452677        16.548970438074825        866.04669674326442     
   30093.203582311897        22.648942247706948        16.136148822206437        882.18284556547087     
   31093.203582311897        22.600187091111721        15.731617974833211        897.91446354030404     
   32093.203582311897        22.552708534246321        15.335610159071839        913.25007369937589     
   33093.203582311893        22.506468939726943        14.948263662704045        928.19833736207988     
   34093.203582311893        22.461432634074420        14.569642625900757        942.76797998798065     
   35093.203582311893        22.417565661463090        14.199752859616078        956.96773284759672     
   36093.203582311893        22.374835582864598        13.838554493592548        970.80628734118932     
   37093.203582311893        22.333211311460431        13.485972099529052        984.29225944071834     
   38093.203582311893        22.292662977100225        13.141902794844237        997.43416223556255     
   39093.203582311893        22.253161814082532        12.806222727236532        1010.2403849627991     
   40093.203582311893        22.214680067704958        12.478792259401022        1022.7191772222002     
   41093.203582311893        22.177190628568926        12.159476577628492        1034.8786537998287     
   42093.203582311893        22.140667449103983        11.848114556890071        1046.7267683567188     
   43093.203582311893        22.105085481534509        11.544530823728987        1058.2712991804478     
   44093.203582311893        22.070420480697159        11.248548682609279        1069.5198478630571     
   45093.203582311893        22.036648891840127        10.959993711389968        1080.4798415744469     
   46093.203582311893        22.003747803464719        10.678693617213240        1091.1585351916601     
   47093.203582311893        21.971694925188256        10.404477750060108        1101.5630129417202     
   48093.203582311893        21.940468571143814        10.137177027475088        1111.7001899691952     
   49093.203582311893        21.910047643243310        9.8766241593563731        1121.5768141285516     
   50093.203582311893        21.880411613673189        9.6226539803085043        1131.1994681088602     
   51093.203582311893        21.851540507153686        9.3751037773880253        1140.5745718862481     
   52093.203582311893        21.823414883491914        9.1338135676297512        1149.7083854538778     
   53093.203582311893        21.796015820745360        8.8986263145288476        1158.6070117684067     
   54093.203582311893        21.769324899136144        8.6693880870723135        1167.2763998554790     
   55093.203582311893        21.743324185749760        8.4459481696291334        1175.7223480251082     
   56093.203582311893        21.717996219993228        8.2281591315368914        1183.9505071566450     
   57093.203582311893        21.693323999762313        8.0158768643873231        1191.9663840210324     
   58093.203582311893        21.669290968258675        7.8089605936924320        1199.7753446147249     
   59093.203582311893        21.645881001397420        7.6072728705099673        1207.3826174852347     
   60093.203582311893        21.623078395750628        7.4106795473779679        1214.7932970326126     
   61093.203582311893        21.600868112365312        7.2190351475165508        1222.0123321801291     
   62093.203582311893        21.579235336294541        7.0322133069054198        1229.0445454870346     
   63093.203582311893        21.558165473436105        6.8500983739512771        1235.8946438609860     
   64093.203582311893        21.537644270324929        6.6725758104091719        1242.5672196713952     
   65093.203582311893        21.517657866759080        6.4995303873397541        1249.0667500587349     
   66093.203582311893        21.498192796012066        6.3308473842092585        1255.3975974429441     
   67093.203582311893        21.479235967010627        6.1664138528482884        1261.5640112957924     
   68093.203582311893        21.460774644991027        6.0061193241270363        1267.5701306199194     
   69093.203582311893        21.442796435110026        5.8498560916075295        1273.4199867115269     
   70093.203582311893        21.425289269132861        5.6975192727780613        1279.1175059843049     
   71093.203582311893        21.408241394365586        5.5490067726482142        1284.6665127569531     
   72093.203582311893        21.391641364066302        5.4042192105735110        1290.0707319675266     
   73093.203582311893        21.375478028810278        5.2630598367770842        1295.3337918043037     
   74093.203582311893        21.359740528483357        5.1254344487445236        1300.4592262530482     
   75093.203582311893        21.344418284710596        4.9912513110021051        1305.4504775640503     
   76093.203582311893        21.329500993606992        4.8604210790659819        1310.3108986431162     
   77093.203582311893        21.314978618783751        4.7328567274493905        1315.0437553705656     
   78093.203582311893        21.300841384571193        4.6084734813214077        1319.6522288518870     
   79093.203582311893        21.287079769434708        4.4871887514150153        1324.1394176033020     
   80093.203582311893        21.273684499569796        4.3689220717629205        1328.5083396750649     
