 #              _____________________  _______________________             #
 #              ___  __ \__  __ \_  / / /_  /___  ____/_  ___/             #
 #              __  / / /_  /_/ /  / / /_  __/_  __/  _____ \              #
 #              _  /_/ /_  _, _// /_/ / / /_ _  /___  ____/ /              #
 #              /_____/ /_/ |_| \____/  \__/ /_____/  /____/               #
 #                                                                         #
  
 #        time                      T            heat flux [W.L-2]   in    x              directions   cumulative flux
 #-----------------------------------------------------------------------------------------------

   0.0000000000000000        25.000000000000000       -0.0000000000000000        0.0000000000000000     
   1.0000000000000000        25.000000000000000        6.0396132539608506E-013   6.0396132539608506E-013
   2.0600000000000001        24.999999999320167        3.0896245561962126E-008   3.0896849523287522E-008
   3.1836000000000002        24.999999996836792        1.2311630825934114E-007   1.5401315778262867E-007
   4.3746160000000005        24.999999991540712        2.8038300570187852E-007   4.3439616348450716E-007
   5.6370929600000004        24.999999982790900        4.8433168586825548E-007   9.1872784935276265E-007
   6.9753185376000006        24.999999970285462        7.0991063694236779E-007   1.6286384862951304E-006
   8.3938376498560014        24.999999953944350        9.3594618277847964E-007   2.5645846690736099E-006
   9.8974679088473625        24.999999933808066        1.1486341833233380E-006   3.7132188523969481E-006
   11.491315983378204        24.999999909973315        1.3409264099095706E-006   5.0541452623065189E-006
   13.180794942380897        24.999999882556370        1.5105960571304418E-006   6.5647413194369602E-006
   14.971642638923752        24.999999851672587        1.6583521755819670E-006   8.2230934950189277E-006
   16.869941197259177        24.999999817424445        1.7864614321183576E-006   1.0009554927137286E-005
   18.882137669094728        24.999999779894271        1.8978518312451338E-006   1.1907406758382420E-005
   21.015065929240414        24.999999739139732        1.9955908925339823E-006   1.3902997650916403E-005
   23.275969884994840        24.999999695191182        2.0826060165290978E-006   1.5985603667445499E-005
   25.672528078094530        24.999999648050409        2.1615359102611360E-006   1.8147139577706636E-005
   28.212879762780204        24.999999597690408        2.2346816663798559E-006   2.0381821244086492E-005
   30.905652548547017        24.999999544055953        2.3039916641209852E-006   2.2685812908207478E-005
   33.759991701459839        24.999999487064727        2.3710802921073078E-006   2.5056893200314786E-005
   36.785591203547433        24.999999426608799        2.4372611662215600E-006   2.7494154366536346E-005
   39.992726675760281        24.999999362556313        2.5035827633246295E-006   2.9997737129860976E-005
   43.392290276305900        24.999999294753128        2.5708737183549597E-006   3.2568610848215933E-005
   46.995827692884255        24.999999223024425        2.6397724184334943E-006   3.5208383266649428E-005
   50.815577354457311        24.999999147175991        2.7107753197697089E-006   3.7919158586419137E-005
   54.864511995724754        24.999999066995318        2.7842623140372771E-006   4.0703420900456415E-005
   59.156382715468240        24.999998982252343        2.8605251145563662E-006   4.3563946015012782E-005
   63.705765678396340        24.999998892699896        2.9397889989013484E-006   4.6503735013914131E-005
   68.528111619100116        24.999998798073833        3.0222315317018902E-006   4.9525966545616022E-005
   73.639798316246129        24.999998698092899        3.1079958517921105E-006   5.2633962397408134E-005
   79.058186215220900        24.999998592458343        3.1972021474757631E-006   5.5831164544883898E-005
   84.801677388134152        24.999998480853382        3.2899482604875621E-006   5.9121112805371461E-005
   90.889778031422210        24.999998362942396        3.3863223691810154E-006   6.2507435174552470E-005
   97.343164713307544        24.999998238370118        3.4863969489151705E-006   6.5993832123467641E-005
   104.18375459610600        24.999998106760561        3.5902384354358210E-006   6.9584070558903463E-005
   111.43477987187237        24.999997967716002        3.6978999773396018E-006   7.3281970536243066E-005
   119.12086666418472        24.999997820815754        3.8094274756872429E-006   7.7091398011930310E-005
   127.26811866403581        24.999997665614952        3.9248547523129665E-006   8.1016252764243277E-005
   135.90420578387796        24.999997501643215        4.0442089854764154E-006   8.5060461749719693E-005
   145.05845813091065        24.999997328403303        4.1674998385587961E-006   8.9227961588278490E-005
   154.76196561876529        24.999997145369626        4.2947303313667354E-006   9.3522691919645226E-005
   165.04768355589121        24.999996951986756        4.4258841569444476E-006   9.7948576076589675E-005
   175.95054456924470        24.999996747667765        4.5609395726842186E-006   1.0250951564927389E-004
   187.50757724339940        24.999996531792540        4.6998724201330325E-006   1.0720938806940693E-004
   199.75803187800338        24.999996303705885        4.8426718279870320E-006   1.1205205989739396E-004
   212.74351379068358        24.999996062730276        4.9892701525777730E-006   1.1704133004997173E-004
   226.50812461812461        24.999995808124179        5.1399868894463899E-006   1.2218131693941811E-004
   241.09861209521210        24.999995539111257        5.2952345441781282E-006   1.2747655148359624E-004
   256.56452882092486        24.999995254869003        5.4560386431035104E-006   1.3293259012669975E-004
   272.95840055018039        24.999994954521426        5.6246507540436124E-006   1.3855724088074337E-004
   290.33590458319122        24.999994637127660        5.8057461416183270E-006   1.4436298702236169E-004
   308.75605885818271        24.999994301662547        6.0087224440508163E-006   1.5037170946641251E-004
   328.28142238967371        24.999993946982094        6.2520228283347007E-006   1.5662373229474722E-004
   348.97830773305412        24.999993571760989        6.5711233787624207E-006   1.6319485567350964E-004
   370.91700619703738        24.999993174379910        7.0330040102817276E-006   1.7022785968379137E-004
   394.17202656885962        24.999992752723699        7.7619587557364849E-006   1.7798981843952785E-004
   418.82234816299120        24.999992303824406        8.9847334194814704E-006   1.8697455185900933E-004
   444.95168905277069        24.999991823239334        1.1107998716397559E-005   1.9808255057540689E-004
   472.64879039593694        24.999991303985006        1.4848782363685583E-005   2.1293133293909247E-004
   502.00771781969320        24.999990734741719        2.1449691303132564E-005   2.3438102424222504E-004
   533.12818088887479        24.999990096884403        3.3026897909849133E-005   2.6740792215207415E-004
   566.11587174220733        24.999989359664514        5.3121031236003078E-005   3.2052895338807724E-004
   601.08282404673980        24.999988472541759        8.7550698779637046E-005   4.0807965216771430E-004
   638.14779348954426        24.999987353219588        1.4570585758377772E-004   5.5378550975149199E-004
   677.43666109891694        24.999985869351903        2.4246357533286295E-004   7.9624908508435488E-004
   719.08286076485194        24.999983811145142        4.0095983234067478E-004   1.1972089174250296E-003
   763.22783241074308        24.999980851178805        6.5650406366302139E-004   1.8537129810880511E-003
   810.02150235538772        24.999976486714143        1.0619712865533868E-003   2.9156842676414376E-003
   859.62279249671099        24.999969958723071        1.6950391824011031E-003   4.6107234500425403E-003
   912.20016004651370        24.999960140566792        2.6676436234396301E-003   7.2783670734821709E-003
   967.93216964930457        24.999945388527866        4.1379877594138739E-003   1.1416354832896044E-002
   1027.0080998282629        24.999923345606074        6.3253456792011758E-003   1.7741700512097218E-002
   1089.6285858179588        24.999890689941573        9.5277367283941299E-003   2.7269437240491350E-002
   1156.0063009670364        24.999842819880481        1.4142305322977219E-002   4.1411742563468565E-002
   1226.3666790250586        24.999773469305708        2.0687925572318019E-002   6.2099668135786587E-002
   1300.9486797665622        24.999674249553159        2.9829173921065426E-002   9.1928842056852006E-002
   1380.0056005525560        24.999534118057767        4.2400402966649146E-002  0.13432924502350116     
   1463.8059365857093        24.999338778728919        5.9428244235064639E-002  0.19375748925856578     
   1552.6342927808519        24.999070024688557        8.2150514456955634E-002  0.27590800371552143     
   1646.7923503477032        24.998705040009696       0.11202924993298777       0.38793725364850917     
   1746.5998913685655        24.998215682926144       0.15075549502491012       0.53869274867341932     
   1852.3958848506795        24.997567777991250       0.20024356413824046       0.73893631281165972     
   1964.5396379417205        24.996720448419094       0.26261278434766661        1.0015490971593264     
   2083.4120162182239        24.995625521063005       0.34015526896290277        1.3417043661222292     
   2209.4167371913172        24.994227036179982       0.43528894095537385        1.7769933070776029     
   2342.9817414227964        24.992460890284846       0.55049590394673931        2.3274892110243424     
   2484.5606459081641        24.990254634703597       0.68824719649676058        3.0157364075211031     
   2634.6342846626540        24.987527444382145       0.85091594025904249        3.8666523477801453     
   2793.7123417424132        24.984190262094472        1.0406818200596744        4.9073341678398199     
   2962.3350822469583        24.980146113254115        1.2594306465451053        6.1667648143849254     
   3141.0751871817761        24.975290577064037        1.5086533876442227        7.6754182020291477     
   3330.5396984126828        24.969512391914215        1.7893494490656532        9.4647676510948013     
   3531.3720803174438        24.962694166237000        2.1019392033508661        11.566706854445668     
   3744.2544051364907        24.954713165473706        2.4461904521948692        14.012897306640538     
   3969.9096694446803        24.945442143561749        2.8211632685517780        16.834060575192314     
   4209.1042496113614        24.934750192867298        3.2251768076300626        20.059237382822378     
   4462.6505045880431        24.922503591873593        3.6558007694432240        23.715038152265603     
   4731.4095348633255        24.908566637764050        4.1098730567485466        27.824911209014150     
   5016.2941069551252        24.892802462145234        4.5835437488781130        32.408454957892260     
   5318.2717533724335        24.875073831556890        5.0723445561654392        37.480799514057701     
   5638.3680585747798        24.855243947566919        5.5712812416165027        43.052080755674204     
   5977.6701420892668        24.833177262084895        6.0749456307454945        49.127026386419701     
   6337.3303506146231        24.808740327995206        6.5776427538415643        55.704669140261267     
   6718.5701716515005        24.781802700325578        7.0735282106155832        62.778197350876852     
   7122.6843819505912        24.752237910469635        7.5567497783492481        70.334947129226094     
   7551.0454448676273        24.719924518499575        8.0215879803344219        78.356535109560511     
   8005.1081715596856        24.684747249192792        8.4625900436537886        86.819125153214301     
   8486.4146618532668        24.646598209877993        8.8746922681811906        95.693817421395494     
   8996.5995415644629        24.605378162173416        9.2533275443680534        104.94714496576354     
   9537.3955140583312        24.560997828929725        9.5945145720072471        114.54165953777078     
   10110.639244901831        24.513379197692430        9.8949268015094187        124.43658633928020     
   10718.277599595942        24.462456805940846        10.151938716278933        134.58852505555913     
   11362.374255571698        24.408178971287164        10.363649355198630        144.95217441075775     
   12045.116710906001        24.350508937622269        10.528884133801524        155.48105854455926     
   12768.823713560361        24.289425864388640        10.647178886755560        166.12823743131483     
   13535.953136373984        24.224925661543040        10.718745544342879        176.84698297565771     
   14349.110324556425        24.157021713465390        10.744418810351133        187.59140178600884     
   15211.056944029811        24.085745417971154        10.725592727488829        198.31699451349766     
   16124.720360671601        24.011146574494589        10.664146677029363        208.98114119052701     
   17093.203582311897        23.933293628030775        10.562366247751063        219.54350743827808     
   18093.203582311897        23.854331878791484        10.427082107852497        229.97058954613058     
   19093.203582311897        23.776883320799165        10.268762915332166        240.23935246146274     
   20093.203582311897        23.701010005011199        10.093158071960671        250.33251053342340     
   21093.203582311897        23.626752248623692        9.9048736817832133        260.23738421520659     
   22093.203582311897        23.554133479509900        9.7075908121666270        269.94497502737323     
   23093.203582311897        23.483163788883488        9.5042436258742651        279.44921865324750     
   24093.203582311897        23.413842777387408        9.2971641847793034        288.74638283802682     
   25093.203582311897        23.346161875048928        9.0881976083840126        297.83458044641083     
   26093.203582311897        23.280106145970702        8.8787993190629404        306.71337976547375     
   27093.203582311897        23.215655709422656        8.6701136493573454        315.38349341483109     
   28093.203582311897        23.152786903267113        8.4630350132443848        323.84652842807549     
   29093.203582311897        23.091473228223457        8.2582565619874497        332.10478499006291     
   30093.203582311897        23.031686105962077        8.0563095595548244        340.16109454961776     
   31093.203582311897        22.973395481820646        7.8575954405733821        348.01868999019115     
   32093.203582311897        22.916570301795069        7.6624118377236154        355.68110182791474     
   33093.203582311893        22.861178889319078        7.4709736090717254        363.15207543698648     
   34093.203582311893        22.807189242450718        7.2834297586603807        370.43550519564684     
   35093.203582311893        22.754569267744372        7.0998770193827081        377.53538221502953     
   36093.203582311893        22.703286963630159        6.9203707427812571        384.45575295781077     
   37093.203582311893        22.653310563447558        6.7449336245551788        391.20068658236596     
   38093.203582311893        22.604608646207389        6.5735626938489116        397.77424927621485     
   39093.203582311893        22.557150221536581        6.4062349104462495        404.18048418666109     
   40093.203582311893        22.510904793977808        6.2429116457726135        410.42339583243370     
   41093.203582311893        22.465842373610574        6.0835443172122066        416.50694014964591     
   42093.203582311893        22.421933532554704        5.9280750233768824        422.43501517302280     
   43093.203582311893        22.379149465405614        5.7764370967911551        428.21145226981395     
   44093.203582311893        22.337462011594084        5.6285574751736069        433.84000974498753     
   45093.203582311893        22.296843656178968        5.4843592067475901        439.32436895173510     
   46093.203582311893        22.257267523064346        5.3437632787051461        444.66813223044022     
   47093.203582311893        22.218707367619736        5.2066897376319679        449.87482196807218     
   48093.203582311893        22.181137569844253        5.0730583559195344        454.94788032399174     
   49093.203582311893        22.144533127425628        4.9427890611846328        459.89066938517635     
   50093.203582311893        22.108869648049659        4.8158022488894039        464.70647163406574     
   51093.203582311893        22.074123340691813        4.6920190313962697        469.39849066546202     
   52093.203582311893        22.040271005908117        4.5713614436360919        473.96985210909810     
   53093.203582311893        22.007290025277324        4.4537526126515905        478.42360472174971     
   54093.203582311893        21.975158350187208        4.3391168946971694        482.76272161644687     
   55093.203582311893        21.943854490148553        4.2273799829976957        486.99010159944459     
   56093.203582311893        21.913357500796852        4.1184689895309026        491.10857058897551     
   57093.203582311893        21.883646971711851        4.0123125043865207        495.12088309336201     
   58093.203582311893        21.854703014159860        3.9088406361374686        499.02972372949949     
   59093.203582311893        21.826506248840520        3.8079850365696535        502.83770876606917     
   60093.203582311893        21.799037793703047        3.7096789124676723        506.54738767853684     
   61093.203582311893        21.772279285212438        3.6138551973918700        510.16124287592868     
   62093.203582311893        21.746212846027095        3.5204485661013498        513.68169144203000     
   63093.203582311893        21.720821042288534        3.4293969068455956        517.11108834887557     
   64093.203582311893        21.696086865878769        3.3406408488710317        520.45172919774654     
   65093.203582311893        21.671993730524029        3.2541228151101000        523.70585201285667     
   66093.203582311893        21.648525470236684        3.1697864035726644        526.87563841642930     
   67093.203582311893        21.625666334937090        3.0875761794685621        529.96321459589785     
   68093.203582311893        21.603400983015575        3.0074376976828168        532.97065229358066     
   69093.203582311893        21.581714472028381        2.9293175983132604        535.89996989189387     
   70093.203582311893        21.560592248599871        2.8531636961788105        538.75313358807273     
   71093.203582311893        21.540020138171599        2.7789250389120919        541.53205862698485     
   72093.203582311893        21.519984334906209        2.7065519333670447        544.23861056035184     
   73093.203582311893        21.500471391868739        2.6359959478946489        546.87460650824653     
   74093.203582311893        21.481468211518497        2.5672098985828735        549.44181640682939     
   75093.203582311893        21.462962036509524        2.5001478259214234        551.94196423275082     
   76093.203582311893        21.444940440784237        2.4347649661359223        554.37672919888678     
   77093.203582311893        21.427391320944086        2.3710177201032319        556.74774691899006     
   78093.203582311893        21.410302887880363        2.3088636214018972        559.05661054039194     
   79093.203582311893        21.393663658651825        2.2482613045033157        561.30487184489527     
   80093.203582311893        21.377462448597040        2.1891704736012936        563.49404231849655     
