 #              _____________________  _______________________             #
 #              ___  __ \__  __ \_  / / /_  /___  ____/_  ___/             #
 #              __  / / /_  /_/ /  / / /_  __/_  __/  _____ \              #
 #              _  /_/ /_  _, _// /_/ / / /_ _  /___  ____/ /              #
 #              /_____/ /_/ |_| \____/  \__/ /_____/  /____/               #
 #                                                                         #
  
 #        time                      h  [L]                   theta [-]       Darcian flow [L.T^{-1}]   in    x              directions   cumulative flux
 #-----------------------------------------------------------------------------------------------

   0.0000000000000000      -0.15000000000000002       0.35988477783539713        4.8218303352261363E-022   4.8218303352261363E-022
   1.0000000000000000      -0.15002018732985728       0.35988476097682637        3.8303494516346120E-010   3.8303494516394340E-010
   2.0600000000000001      -0.15009464455309837       0.35988469879546009        1.5334560416012344E-009   1.9164909867651778E-009
   3.1836000000000002      -0.15025448612989534       0.35988456529838275        3.4964574472535608E-009   5.4129484340187386E-009
   4.3746160000000005      -0.15051972885122361       0.35988434374557160        6.0289449984439380E-009   1.1441893432462677E-008
   5.6370929600000004      -0.15089990130736214       0.35988402613648551        8.7981594386322826E-009   2.0240052871094961E-008
   6.9753185376000006      -0.15139757205059790       0.35988361026338272        1.1521923742948545E-008   3.1761976614043508E-008
   8.3938376498560014      -0.15201148714377782       0.35988309709326916        1.4016357272344021E-008   4.5778333886387532E-008
   9.8974679088473625      -0.15273859017438179       0.35988248908379650        1.6188447862281326E-008   6.1966781748668852E-008
   11.491315983378204      -0.15357517756766303       0.35988178922103925        1.8010191261704549E-008   7.9976973010373398E-008
   13.180794942380897      -0.15451754694332182       0.35988100048001054        1.9493248380699389E-008   9.9470221391072793E-008
   14.971642638923752      -0.15556237384903179       0.35988012551124543        2.0670153848805428E-008   1.2014037523987822E-007
   16.869941197259177      -0.15670694035488075       0.35987916645030149        2.1582178968377231E-008   1.4172255420825547E-007
   18.882137669094728      -0.15794927516320642       0.35987812480039533        2.2272173393163956E-008   1.6399472760141941E-007
   21.015065929240414      -0.15928823444563917       0.35987700136386563        2.2780666194629279E-008   1.8677539379604868E-007
   23.275969884994840      -0.16072353932911693       0.35987579620927324        2.3143952006535613E-008   2.0991934580258431E-007
   25.672528078094530      -0.16225578041696115       0.35987450866558424        2.3393337888347622E-008   2.3331268369093193E-007
   28.212879762780204      -0.16388639746287945       0.35987313733676912        2.3555053174005229E-008   2.5686773686493715E-007
   30.905652548547017      -0.16561764130670950       0.35987168013098048        2.3650530113335219E-008   2.8051826697827237E-007
   33.759991701459839      -0.16745252453866083       0.35987013429898246        2.3696882656719072E-008   3.0421514963499147E-007
   36.785591203547433      -0.16939476669817100       0.35986849647703434        2.3707477770129464E-008   3.2792262740512092E-007
   39.992726675760281      -0.17144873899865484       0.35986676273008350        2.3692531696002475E-008   3.5161515910112338E-007
   43.392290276305900      -0.17361941259795721       0.35986492859191288        2.3659686710384951E-008   3.7527484581150833E-007
   46.995827692884255      -0.17591231337211249       0.35986298909975689        2.3614539663857886E-008   3.9888938547536621E-007
   50.815577354457311      -0.17833348508941405       0.35986093882177117        2.3561105429896966E-008   4.2245049090526319E-007
   54.864511995724754      -0.18088946191241312       0.35985877187654647        2.3502207686981748E-008   4.4595269859224495E-007
   59.156382715468240      -0.18358725034623880       0.35985648194452524        2.3439796647742521E-008   4.6939249523998746E-007
   63.705765678396340      -0.18643432014203939       0.35985406227169420        2.3375198532601697E-008   4.9276769377258911E-007
   68.528111619100116      -0.18943860326332801       0.35985150566625929        2.3309304882871816E-008   5.1607699865546090E-007
   73.639798316246129      -0.19260849981403427       0.35984880448919060        2.3242711446086357E-008   5.3931971010154728E-007
   79.058186215220900      -0.19595288977594250       0.35984595063957153        2.3175816670806147E-008   5.6249552677235342E-007
   84.801677388134152      -0.19948114946738088       0.35984293553563607        2.3108889201626611E-008   5.8560441597398008E-007
   90.889778031422210      -0.20320317177159877       0.35983975009226865        2.3042112541878417E-008   6.0864652851585852E-007
   97.343164713307544      -0.20712938935496730       0.35983638469559931        2.2975613572710011E-008   6.3162214208856849E-007
   104.18375459610600      -0.21127080027360418       0.35983282917517989        2.2909480126369200E-008   6.5453162221493766E-007
   111.43477987187237      -0.21563899553364291       0.35982907277408965        2.2843771463265214E-008   6.7737539367820283E-007
   119.12086666418472      -0.22024618831544002       0.35982510411719792        2.2778524378962103E-008   7.0015391805716488E-007
   127.26811866403581      -0.22510524469234203       0.35982091117771003        2.2713756788196264E-008   7.2286767484536116E-007
   135.90420578387796      -0.23022971577175005       0.35981648124204424        2.2649469982263442E-008   7.4551714482762460E-007
   145.05845813091065      -0.23563387126340346       0.35981180087302078        2.2585650296991220E-008   7.6810279512461578E-007
   154.76196561876529      -0.24133273454142654       0.35980685587129269        2.2522270616365098E-008   7.9062506574098090E-007
   165.04768355589121      -0.24734211931626185       0.35980163123490605        2.2459291933139107E-008   8.1308435767411996E-007
   175.95054456924470      -0.25367866807288564       0.35979611111684529        2.2396665057901569E-008   8.3548102273202151E-007
   187.50757724339940      -0.26035989246450963       0.35979027878038494        2.2334332487835795E-008   8.5781535521985733E-007
   199.75803187800338      -0.26740378259764891       0.35978411693147822        2.2271241675066994E-008   8.8008659689492432E-007
   212.74351379068358      -0.27482999593814772       0.35977760666931280        2.2208880061545611E-008   9.0229547695646995E-007
   226.50812461812461      -0.28265896025364123       0.35977072825800999        2.2146823161730905E-008   9.2444230011820082E-007
   241.09861209521210      -0.29091212605038713       0.35976346089530364        2.2084864362865939E-008   9.4652716448106678E-007
   256.56452882092486      -0.29961203884162046       0.35975578263759966        2.2022883444353759E-008   9.6855004792542043E-007
   272.95840055018039      -0.30878240437054022       0.35974767033055682        2.1960796604577040E-008   9.9051084452999745E-007
   290.33590458319122      -0.31844815252467917       0.35973909954022976        2.1898536529450891E-008   1.0124093810594482E-006
   308.75605885818271      -0.32863550323277202       0.35973004448190399        2.1836045464426847E-008   1.0342454265238751E-006
   328.28142238967371      -0.33937203586355252       0.35972047794529344        2.1773273203078101E-008   1.0560186997269532E-006
   348.97830773305412      -0.35068676286362849       0.35971037121544724        2.1710176663082723E-008   1.0777288763900360E-006
   370.91700619703738      -0.36261020807640276       0.35969969398897639        2.1646719844443301E-008   1.0993755962344793E-006
   394.17202656885962      -0.37517449008788417       0.35968841428529696        2.1582873782380853E-008   1.1209584700168600E-006
   418.82234816299120      -0.38841341092777615       0.35967649835260618        2.1518616398182180E-008   1.1424770864150423E-006
   444.95168905277069      -0.40236255046882158       0.35966391056830110        2.1453932247593907E-008   1.1639310186626363E-006
   472.64879039593694      -0.41705936689638001       0.35965061333352949        2.1388812195231810E-008   1.1853198308578680E-006
   502.00771781969320      -0.43254330365700322       0.35963656696153962        2.1323253047111099E-008   1.2066430839049790E-006
   533.12818088887479      -0.44885590333587694       0.35962172955946603        2.1257257170598843E-008   1.2279003410755778E-006
   566.11587174220733      -0.46604092895674554       0.35960605690316133        2.1190832124118024E-008   1.2490911731996957E-006
   601.08282404673980      -0.48414449324208625       0.35958950230465825        2.1123990312540422E-008   1.2702151635122362E-006
   638.14779348954426      -0.50321519641530554       0.35957201647181924        2.1056748678517341E-008   1.2912719121907535E-006
   677.43666109891694      -0.52330427316798056       0.35955354735971301        2.0989128435473596E-008   1.3122610406262272E-006
   719.08286076485194      -0.54446574945350412       0.35953404001324535        2.0921154844464960E-008   1.3331821954706921E-006
   763.22783241074308      -0.56675699736868268       0.35951343604185582        2.0853044974131616E-008   1.3540352404448236E-006
   810.02150235538772      -0.59023785753259628       0.35949167441857066        2.0784531431834721E-008   1.3748197718766583E-006
   859.62279249671099      -0.61497173999908306       0.35946869045474017        2.0715717770524300E-008   1.3955354896471826E-006
   912.20016004651370      -0.64102562223081427       0.35944441579155006        2.0646680702919725E-008   1.4161821703501024E-006
   967.93216964930457      -0.66847023787633852       0.35941877821775292        2.0577472132608750E-008   1.4367596424827112E-006
   1027.0080998282629      -0.69738030126958817       0.35939170145638566        2.0508140456437493E-008   1.4572677829391487E-006
   1089.6285858179588      -0.72783475236036299       0.35936310493493223        2.0438736247260687E-008   1.4777065191864094E-006
   1156.0063009670364      -0.75991701837054992       0.35933290354286196        2.0369313167549767E-008   1.4980758323539591E-006
   1226.3666790250586      -0.79371529211905600       0.35930100737719800        2.0299927889845665E-008   1.5183757602438048E-006
   1300.9486797665622      -0.82932282768613941       0.35926732147619889        2.0230639721409148E-008   1.5386063999652139E-006
   1380.0056005525560      -0.86683825427870520       0.35923174554116388        2.0161509997910523E-008   1.5587679099631245E-006
   1463.8059365857093      -0.90636590930351302       0.35919417364636508        2.0092601203031447E-008   1.5788605111661559E-006
   1552.6342927808519      -0.94801619184814667       0.35915449393705756        2.0023975759103846E-008   1.5988844869252597E-006
   1646.7923503477032      -0.99190593803503568       0.35911258831542064        1.9955694439695175E-008   1.6188401813649550E-006
   1746.5998913685655       -1.0381588200600371       0.35906833211411732        1.9887814373342473E-008   1.6387279957382975E-006
   1852.3958848506795       -1.0869054783127030       0.35902159403798600        1.9820303132479389E-008   1.6585482988707769E-006
   1964.5396379417205       -1.1382847774613298       0.35897223504200054        1.9753346990331125E-008   1.6783016458611081E-006
   2083.4120162182239       -1.1924435963321391       0.35892010862876378        1.9686930619946492E-008   1.6979885764810545E-006
   2209.4167371913172       -1.2495374996252118       0.35886506032090471        1.9621053509803896E-008   1.7176096299908585E-006
   2342.9817414227964       -1.3097313311482435       0.35880692722856627        1.9555709761990392E-008   1.7371653397528488E-006
   2484.5606459081641       -1.3731998247156407       0.35874553762331463        1.9490872766259394E-008   1.7566562125191082E-006
   2634.6342846626540       -1.4401282631077359       0.35868071049259603        1.9426490503557360E-008   1.7760827030226656E-006
   2793.7123417424132       -1.5107131946930079       0.35861225506913730        1.9362482860819996E-008   1.7954451858834855E-006
   2962.3350822469583       -1.5851632149773605       0.35853997033239099        1.9298739865971726E-008   1.8147439257494572E-006
   3141.0751871817761       -1.6636998206367979       0.35846364447939083        1.9235120977877073E-008   1.8339790467273342E-006
   3330.5396984126828       -1.7465586951368983       0.35838305402097653        1.9171530431149879E-008   1.8531505771584842E-006
   3531.3720803174438       -1.8339897632153512       0.35829796412682119        1.9107636977442680E-008   1.8722582141359269E-006
   3744.2544051364907       -1.9262591801519668       0.35820812714764239        1.9043270120018805E-008   1.8913014842559457E-006
   3969.9096694446803       -2.0236503570962583       0.35811328214009785        1.8978198282070706E-008   1.9102796825380162E-006
   4209.1042496113614       -2.1264652788643104       0.35801315418281543        1.8912169116729890E-008   1.9291918516547462E-006
   4462.6505045880431       -2.2350259912737318       0.35790745361305382        1.8844926585720518E-008   1.9480367782404668E-006
   4731.4095348633255       -2.3496758364451775       0.35779587560591097        1.8776147514844538E-008   1.9668129257553113E-006
   5016.2941069551252       -2.4707823736896706       0.35767809822372426        1.8705729082481695E-008   1.9855186548377931E-006
   5318.2717533724335       -2.5987383637084358       0.35755378247762531        1.8633410516744434E-008   2.0041520653545374E-006
   5638.3680585747798       -2.7339642263606065       0.35742257109830372        1.8559014788604236E-008   2.0227110801431415E-006
   5977.6701420892668       -2.8769105178763041       0.35728408745264062        1.8482416997676466E-008   2.0411934971408180E-006
   6337.3303506146231       -3.0280611717960526       0.35713793390913445        1.8403629164875087E-008   2.0595971263056930E-006
   6718.5701716515005       -3.1879350360007748       0.35698369206512731        1.8322487360862806E-008   2.0779196136665560E-006
   7122.6843819505912       -3.3570905572295251       0.35682092017132516        1.8239099441843097E-008   2.0961587131083990E-006
   7551.0454448676273       -3.5361291625365925       0.35664915210125558        1.8153574743910360E-008   2.1143122878523096E-006
   8005.1081715596856       -3.7256986697296361       0.35646789660526468        1.8065974939098533E-008   2.1323782627914081E-006
   8486.4146618532668       -3.9264998677781566       0.35627663389745534        1.7976675586826125E-008   2.1503549383782341E-006
   8996.5995415644629       -4.1392899549602333       0.35607481567739319        1.7885851213521975E-008   2.1682407895917562E-006
   9537.3955140583312       -4.3648896727371831       0.35586186210749665        1.7793875267248461E-008   2.1860346648590048E-006
   10110.639244901831       -4.6041875702895512       0.35563716206245366        1.7700871505585757E-008   2.2037355363645904E-006
   10718.277599595942       -4.8581493795229242       0.35540006918029793        1.7607221723632629E-008   2.2213427580882233E-006
   11362.374255571698       -5.1278243750924331       0.35514990148925712        1.7513107523926400E-008   2.2388558656121496E-006
   12045.116710906001       -5.4143577716515825       0.35488593625394976        1.7419024597886520E-008   2.2562748902100363E-006
   12768.823713560361       -5.7189994636654182       0.35460740923451484        1.7325265487538701E-008   2.2736001556975748E-006
   13535.953136373984       -6.0431126761599900       0.35431351506329922        1.7231836026456385E-008   2.2908319917240313E-006
   14349.110324556425       -6.3881886806744639       0.35400340330917829        1.7138870854358780E-008   2.3079708625783902E-006
   15211.056944029811       -6.7558673589003195       0.35367617087426767        1.7046887850322109E-008   2.3250177504287122E-006
   16124.720360671601       -7.1479433099334990       0.35333086903853211        1.6955562774593643E-008   2.3419733132033060E-006
   17093.203582311897       -7.5663964757662336       0.35296649058371199        1.6865330765286779E-008   2.3588386439685926E-006
   18093.203582311897       -8.0017294074442500       0.35259195637987295        1.6777932709137910E-008   2.3756165766777307E-006
   19093.203582311897       -8.4405275420311536       0.35221910569636528        1.6695626207219516E-008   2.3923122028849503E-006
   20093.203582311897       -8.8829842871063622       0.35184785288045617        1.6618097702978452E-008   2.4089303005879287E-006
   21093.203582311897       -9.3292816086852035       0.35147811974792742        1.6544864607161200E-008   2.4254751651950898E-006
   22093.203582311897       -9.7795911559215352       0.35110983525138784        1.6475492897400225E-008   2.4419506580924901E-006
   23093.203582311897       -10.234075906839225       0.35074293456559402        1.6409603733004020E-008   2.4583602618254940E-006
   24093.203582311897       -10.692891568242464       0.35037735828831795        1.6346867543357519E-008   2.4747071293688516E-006
   25093.203582311897       -11.156185679916272       0.35001305337915306        1.6286903922382058E-008   2.4909940332912339E-006
   26093.203582311897       -11.624105141807350       0.34964996743735716        1.6229662638093019E-008   2.5072236959293268E-006
   27093.203582311897       -12.096790361043517       0.34928805353160458        1.6174825127580021E-008   2.5233985210569069E-006
   28093.203582311897       -12.574378111505618       0.34892726805667801        1.6122195226413376E-008   2.5395207162833204E-006
   29093.203582311897       -13.057002352716713       0.34856757021761925        1.6071608233502797E-008   2.5555923245168233E-006
   30093.203582311897       -13.544794765596675       0.34820892172152451        1.6022919323758258E-008   2.5716152438405815E-006
   31093.203582311897       -14.037885214552700       0.34785128651416009        1.5976000539304693E-008   2.5875912443798862E-006
   32093.203582311897       -14.536402150854546       0.34749463055211621        1.5930738445331941E-008   2.6035219828252181E-006
   33093.203582311893       -15.040472964329190       0.34713892160669790        1.5887032052688098E-008   2.6194090148779062E-006
   34093.203582311893       -15.550224290477201       0.34678412909528100        1.5844791016546349E-008   2.6352538058944524E-006
   35093.203582311893       -16.065782279524843       0.34643022393606215        1.5803934097867437E-008   2.6510577399923199E-006
   36093.203582311893       -16.587272833050100       0.34607717842262614        1.5764387858350402E-008   2.6668221278506705E-006
   37093.203582311893       -17.114821812996937       0.34572496611526232        1.5726085558119424E-008   2.6825482134087900E-006
   38093.203582311893       -17.648555227169400       0.34537356174642225        1.5688966226209881E-008   2.6982371796350000E-006
   39093.203582311893       -18.188599394662685       0.34502294113812493        1.5652973877230915E-008   2.7138901535122310E-006
   40093.203582311893       -18.735081094191209       0.34467308112944528        1.5618056851725655E-008   2.7295082103639567E-006
   41093.203582311893       -19.288130376358986       0.34432395783348868        1.5584245802950793E-008   2.7450924561669074E-006
   42093.203582311893       -19.847872497623094       0.34397555175847566        1.5551335205122252E-008   2.7606437913720296E-006
   43093.203582311893       -20.414436104969571       0.34362784259508344        1.5519356767911394E-008   2.7761631481399408E-006
   44093.203582311893       -20.987951111447920       0.34328081062124965        1.5488282401584104E-008   2.7916514305415248E-006
