 #              _____________________  _______________________             #
 #              ___  __ \__  __ \_  / / /_  /___  ____/_  ___/             #
 #              __  / / /_  /_/ /  / / /_  __/_  __/  _____ \              #
 #              _  /_/ /_  _, _// /_/ / / /_ _  /___  ____/ /              #
 #              /_____/ /_/ |_| \____/  \__/ /_____/  /____/               #
 #                                                                         #
  
 #        time                      T            heat flux [W.L-2]   in    x              directions   cumulative flux
 #-----------------------------------------------------------------------------------------------

   0.0000000000000000        25.000000000000000       -0.0000000000000000        0.0000000000000000     
   1.0000000000000000        24.986226992397931        2.3277355604777821        2.3277355604777821     
   2.0600000000000001        24.971857962377634        4.7410153852370795        7.0687509457148616     
   3.1836000000000002        24.956880201023214        7.2397349620742029        14.308485907789064     
   4.3746160000000005        24.941281904943811        9.8233804227304855        24.131866330519550     
   5.6370929600000004        24.925052606891118        12.490974567779414        36.622840898298961     
   6.9753185376000006        24.908183330286793        15.241036669732987        51.863877568031945     
   8.3938376498560014        24.890666763391465        18.071540834369188        69.935418402401126     
   9.8974679088473625        24.872497437080618        20.979875281250546        90.915293683651669     
   11.491315983378204        24.853671901248759        23.962803579792165        114.87809726344383     
   13.180794942380897        24.834188896060979        27.016428854116132        141.89452611755996     
   14.971642638923752        24.814049514147623        30.136162065852805        172.03068818341276     
   16.869941197259177        24.793257349487419        33.316695587291186        205.34738377070394     
   18.882137669094728        24.771818628350815        36.551983369297190        241.89936714000112     
   21.015065929240414        24.749742317342012        39.835229080454759        281.73459622045590     
   23.275969884994840        24.727040203325004        43.158883637483747        324.89347985793967     
   25.672528078094530        24.703726939878774        46.514653553667415        371.40813341160708     
   28.212879762780204        24.679820054935451        49.893521492299008        421.30165490390607     
   30.905652548547017        24.655339914446301        53.285780317037371        474.58743522094346     
   33.759991701459839        24.630309637328786        56.681081771357128        531.26851699230065     
   36.785591203547433        24.604754957604392        60.068500687324743        591.33701767962543     
   39.992726675760281        24.578704030567266        63.436615313435041        654.77363299306046     
   43.392290276305900        24.552187181045529        66.773603958913526        721.54723695197401     
   46.995827692884255        24.525236593335627        70.067357678062095        791.61459463003609     
   50.815577354457311        24.497885944195502        73.305608167783106        864.92020279781923     
   54.864511995724754        24.470169982344991        76.476069435292899        941.39627223311209     
   59.156382715468240        24.442124060190697        79.566591128356450        1020.9628633614685     
   63.705765678396340        24.413783625891018        82.565320731604601        1103.5281840930732     
   68.528111619100116        24.385183686304241        85.460871151061681        1188.9890552441348     
   73.639798316246129        24.356358253692257        88.242489573238487        1277.2315448173733     
   79.058186215220900        24.327339791137991        90.900222938749820        1368.1317677561231     
   84.801677388134152        24.298158673315264        93.425074960472173        1461.5568427165952     
   90.889778031422210        24.268842680358386        95.809149390639220        1557.3659921072344     
   97.343164713307544        24.239416542957034        98.045774244178062        1655.4117663514126     
   104.18375459610600        24.209901556312381        100.12960195391534        1755.5413683053280     
   111.43477987187237        24.180315279135353        102.05668099088467        1857.5980492962126     
   119.12086666418472        24.150671331404290        103.82449533677659        1961.4225446329892     
   127.26811866403581        24.120979301155081        105.43196933044663        2066.8545139634357     
   135.90420578387796        24.091244766260605        106.87943678732816        2173.7339507507641     
   145.05845813091065        24.061469432163690        108.16857484469826        2281.9025255954625     
   154.76196561876529        24.031651381134846        109.30230462897211        2391.2048302244348     
   165.04768355589121        24.001785423179449        110.28466246614258        2501.4894926905772     
   175.95054456924470        23.971863533607827        111.12064684477254        2612.6101395353498     
   187.50757724339940        23.941875357907406        111.81604757298786        2724.4261871083377     
   199.75803187800338        23.911809881798423        112.37707182761376        2836.8032589359514     
   212.74351379068358        23.881652652640621        112.81074698052973        2949.6140059164809     
   226.50812461812461        23.851389701489460        113.12414159091965        3062.7381475074008     
   241.09861209521210        23.821006953268384        113.32440352205087        3176.0625510294517     
   256.56452882092486        23.790490715719468        113.41861066792930        3289.4811616973811     
   272.95840055018039        23.759828104081802        113.41364425027753        3402.8948059476588     
   290.33590458319122        23.729007390265576        113.31608764198165        3516.2108935896404     
   308.75605885818271        23.698018270978661        113.13215191194892        3629.3430455015891     
   328.28142238967371        23.666852054698861        112.86762759249832        3742.2106730940873     
   348.97830773305412        23.635501772255797        112.52786068183188        3854.7385337759192     
   370.91700619703738        23.603962219700843        112.11774972622138        3966.8562835021407     
   394.17202656885962        23.572229944845930        111.64176005191192        4078.4980435540529     
   418.82234816299120        23.540303190241779        111.10395085901473        4189.6019944130676     
   444.95168905277069        23.508181805500431        110.50801092417974        4300.1100053372475     
   472.64879039593694        23.475867140934820        109.85729902073494        4409.9673043579824     
   502.00771781969320        23.443361932772689        109.15488576213029        4519.1221901201125     
   533.12818088887479        23.410670188027321        108.40359430344159        4627.5257844235539     
   566.11587174220733        23.377797074790440        107.60603809693887        4735.1318225204932     
   601.08282404673980        23.344748821520234        106.76465460874086        4841.8964771292340     
   638.14779348954426        23.311532627021375        105.88173450608900        4947.7782116353228     
   677.43666109891694        23.278156581359902        104.95944628794800        5052.7376579232705     
   719.08286076485194        23.244629596950464        103.99985664917801        5156.7375145724482     
   763.22783241074308        23.210958292990036        103.00539999997721        5259.7429145724254     
   810.02150235538772        23.177156542143511        101.97739867334712        5361.7203132457726     
   859.62279249671099        23.143235084707346        100.91777044212436        5462.6380836878971     
   912.20016004651370        23.109205384911448        99.828351236237069        5562.4664349241339     
   967.93216964930457        23.075079545275745        98.710914171243815        5661.1773490953774     
   1027.0080998282629        23.040870240087493        97.567182263648618        5758.7445313590260     
   1089.6285858179588        23.006590660990259        96.398836955795119        5855.1433683148216     
   1156.0063009670364        22.972254469823191        95.207523885159958        5950.3508921999819     
   1226.3666790250586        22.937875755554373        93.994856836930069        6044.3457490369119     
   1300.9486797665622        22.903468993331010        92.762420478656097        6137.1081695155681     
   1380.0056005525560        22.869049004450986        91.511772252587761        6228.6199417681555     
   1463.8059365857093        22.834630916561121        90.244443660535026        6318.8643854286902     
   1552.6342927808519        22.800230123699084        88.961941090186954        6407.8263265188771     
   1646.7923503477032        22.765862245987215        87.665746280640207        6495.4920727995177     
   1746.5998913685655        22.731543088903244        86.357316494847467        6581.8493892943652     
   1852.3958848506795        22.697295802913800        85.037222246940161        6666.8866115413057     
   1964.5396379417205        22.663127366271233        83.708172016698228        6750.5947835580037     
   2083.4120162182239        22.629055354602976        82.371238684027219        6832.9660222420307     
   2209.4167371913172        22.595096527037480        81.027671678589925        6913.9936939206209     
   2342.9817414227964        22.561267321769837        79.678761991131310        6993.6724559117520     
   2484.5606459081641        22.527584009600218        78.325795773505959        7071.9982516852579     
   2634.6342846626540        22.494062725264005        76.970038191593801        7148.9682898768515     
   2793.7123417424132        22.460719455455660        75.612727366704988        7224.5810172435567     
   2962.3350822469583        22.427570011569632        74.255071625358056        7298.8360888689149     
   3141.0751871817761        22.394629997157537        72.898247821558058        7371.7343366904734     
   3330.5396984126828        22.361903269537191        71.544574007325863        7443.2789106977989     
   3531.3720803174438        22.329420045717335        70.193257125850238        7513.4721678236492     
   3744.2544051364907        22.297191954428499        68.845969768989875        7582.3181375926388     
   3969.9096694446803        22.265232368519921        67.503889131823740        7649.8220267244624     
   4209.1042496113614        22.233554805280917        66.168052776639868        7715.9900795011026     
   4462.6505045880431        22.202172483856749        64.839435881360899        7780.8295153824638     
   4731.4095348633255        22.171110248795724        63.517857834759440        7844.3473732172233     
   5016.2941069551252        22.140364256717035        62.206044176514091        7906.5534173937376     
   5318.2717533724335        22.109949756792815        60.904178846370719        7967.4575962401086     
   5638.3680585747798        22.079878608096621        59.612923683725704        8027.0705199238346     
   5977.6701420892668        22.050161192800747        58.332969578751971        8085.4034895025861     
   6337.3303506146231        22.020792961602879        57.066094470358614        8142.4695839729447     
   6718.5701716515005        21.991799823599862        55.810934824948916        8198.2805187978938     
   7122.6843819505912        21.963183332765148        54.568686202332962        8252.8492050002260     
   7551.0454448676273        21.934946313689867        53.339810253904524        8306.1890152541309     
   8005.1081715596856        21.907105279644039        52.123363500068884        8358.3123787541990     
   8486.4146618532668        21.879638069764944        50.921449928950608        8409.2338286831491     
   8996.5995415644629        21.852544963701739        49.733179526669346        8458.9670082098182     
   9537.3955140583312        21.825802031199665        48.559355814410409        8507.5263640242283     
   10110.639244901831        21.799417748166363        47.397485823371241        8554.9238498475988     
   10718.277599595942        21.773368521795653        46.247662907306115        8601.1715127549051     
   11362.374255571698        21.747650357434679        45.107625094700509        8646.2791378496058     
   12045.116710906001        21.722207907371434        43.978512103027292        8690.2576499526331     
   12768.823713560361        21.696992853880122        42.859310495290934        8733.1169604479237     
   13535.953136373984        21.671994761948227        41.745984829221428        8774.8629452771456     
   14349.110324556425        21.647188657104319        40.636093699974154        8815.4990389771192     
   15211.056944029811        21.622472685997828        39.531649502333188        8855.0306884794518     
   16124.720360671601        21.597853332444785        38.426072021669313        8893.4567605011216     
   17093.203582311897        21.573229535379394        37.321193049914932        8930.7779535510363     
   18093.203582311897        21.549189462587410        36.239493003377497        8967.0174465544133     
   19093.203582311897        21.526352738551694        35.209985948087066        9002.2274325025010     
   20093.203582311897        21.504571589855889        34.226683635188529        9036.4541161376892     
   21093.203582311897        21.483726555668749        33.284497087574188        9069.7386132252632     
   22093.203582311897        21.463719784779340        32.379230073997689        9102.1178432992601     
   23093.203582311897        21.444470606305156        31.507412681625272        9133.6252559808854     
   24093.203582311897        21.425912141501826        30.666160038065694        9164.2914160189503     
   25093.203582311897        21.408007253088993        29.851997506875289        9194.1434135258260     
   26093.203582311897        21.390677115061148        29.065142382043032        9223.2085559078696     
   27093.203582311897        21.373892672349108        28.302697364311033        9251.5112532721814     
   28093.203582311897        21.357622036847641        27.563143364924560        9279.0743966371065     
   29093.203582311897        21.341836882195043        26.845218280886034        9305.9196149179934     
   30093.203582311897        21.326512456694985        26.147824509537092        9332.0674394275302     
   31093.203582311897        21.311627062262033        25.469997217239261        9357.5374366447686     
   32093.203582311897        21.297161540453256        24.810880873752140        9382.3483175185211     
   33093.203582311893        21.283098833041709        24.169710207847089        9406.5180277263680     
   34093.203582311893        21.269423618994853        23.545794698543091        9430.0638224249105     
   35093.203582311893        21.256122018041783        22.938505975102515        9453.0023284000126     
   36093.203582311893        21.243181349711200        22.347267594157657        9475.3495959941702     
   37093.203582311893        21.230589937797241        21.771546748135879        9497.1211427423059     
   38093.203582311893        21.218336951749791        21.210847537258477        9518.3319902795647     
   39093.203582311893        21.206412277966177        20.664705504965664        9538.9966957845299     
   40093.203582311893        21.194806415249513        20.132683193125995        9559.1293789776555     
   41093.203582311893        21.183493184688984        19.615346737194148        9578.7447257148488     
   42093.203582311893        21.172493503140583        19.110233750279644        9597.8549594651286     
   43093.203582311893        21.161789699047514        18.618042046892874        9616.4730015120222     
   44093.203582311893        21.151372411074359        18.138453896653019        9634.6114554086744     
   45093.203582311893        21.141233693692669        17.671117062880505        9652.2825724715549     
   46093.203582311893        21.131366167919136        17.215693188421056        9669.4982656599768     
   47093.203582311893        21.121762819353737        16.771857965437341        9686.2701236254143     
   48093.203582311893        21.112416919955230        16.339299358602467        9702.6094229840164     
   49093.203582311893        21.103321987000882        15.917716258362857        9718.5271392423801     
   50093.203582311893        21.094471757089511        15.506817494055182        9734.0339567364354     
   51093.203582311893        21.085860167631296        15.106321076747223        9749.1402778131833     
   52093.203582311893        21.077481342669735        14.715953593135490        9763.8562314063183     
   53093.203582311893        21.069329581493907        14.335449704442761        9778.1916811107603     
   54093.203582311893        21.061399349191248        13.964551721680452        9792.1562328324417     
   55093.203582311893        21.053685268618860        13.603009238734872        9805.7592420711771     
   56093.203582311893        21.046182113452808        13.250578810211829        9819.0098208813888     
   57093.203582311893        21.038884802076730        12.907023664800819        9831.9168445461892     
   58093.203582311893        21.031788392136349        12.572113447265767        9844.4889579934552     
   59093.203582311893        21.024888075631790        12.245623983745045        9856.7345819771999     
   60093.203582311893        21.018179174448132        11.927337066375852        9868.6619190435758     
   61093.203582311893        21.011672354996353        11.616173309520146        9880.2780923530954     
   62093.203582311893        21.005337219723984        11.313751758897570        9891.5918441119939     
   63093.203582311893        20.999177837002815        11.018927163408732        9902.6107712754019     
   64093.203582311893        20.993191427881236        10.731465063539174        9913.3422363389418     
   65093.203582311893        20.987374353993506        10.451180105903921        9923.7934164448452     
   66093.203582311893        20.981722837053695        10.177891325218935        9933.9713077700635     
   67093.203582311893        20.976233111979724        9.9114206901078017        9943.8827284601721     
   68093.203582311893        20.970901474342945        9.6515936590499418        9953.5343221192215     
   69093.203582311893        20.965724298086094        9.3982395203921154        9962.9325616396145     
   70093.203582311893        20.960698042537796        9.1511915337575118        9972.0837531733723     
   71093.203582311893        20.955819254933324        8.9102869625533572        9980.9940401359254     
   72093.203582311893        20.951084570845886        8.6753670489741737        9989.6694071848997     
   73093.203582311893        20.946490713575599        8.4462769583461323        9998.1156841432457     
   74093.203582311893        20.942034492995685        8.2228657070025974        10006.338549850248     
   75093.203582311893        20.937712804109431        8.0049860813816949        10014.343535931630     
   76093.203582311893        20.933522625455119        7.7924945527240217        10022.136030484355     
   77093.203582311893        20.929461017435081        7.5852511898250023        10029.721281674179     
   78093.203582311893        20.925525120612829        7.3831195713578106        10037.104401245537     
   79093.203582311893        20.921712154005718        7.1859666986190911        10044.290367944155     
   80093.203582311893        20.918019413388045        6.9936629093019969        10051.284030853458     
