 #              _____________________  _______________________             #
 #              ___  __ \__  __ \_  / / /_  /___  ____/_  ___/             #
 #              __  / / /_  /_/ /  / / /_  __/_  __/  _____ \              #
 #              _  /_/ /_  _, _// /_/ / / /_ _  /___  ____/ /              #
 #              /_____/ /_/ |_| \____/  \__/ /_____/  /____/               #
 #                                                                         #
  
 #        time                      h  [L]                   theta [-]       Darcian flow [L.T^{-1}]   in    x              directions   cumulative flux
 #-----------------------------------------------------------------------------------------------

   0.0000000000000000      -0.30000000000000004       0.35975543982609626        4.6973552605177779E-024   4.6973552605177779E-024
   1.0000000000000000      -0.30494400092314167       0.35975106818032432        9.2957689406350571E-008   9.2957689406350571E-008
   2.0600000000000001      -0.30754320623934955       0.35974876766010805        1.0382495955530415E-007   1.9678264896165473E-007
   3.1836000000000002      -0.30950928220687990       0.35974702650956414        1.0684723529832430E-007   3.0362988425997900E-007
   4.3746160000000005      -0.31118063291723475       0.35974554569156442        1.0830469863246241E-007   4.1193458289244144E-007
   5.6370929600000004      -0.31267866984055692       0.35974421790558170        1.0918641984178066E-007   5.2112100273422206E-007
   6.9753185376000006      -0.31406393337565564       0.35974298963778800        1.0977434927869905E-007   6.3089535201292111E-007
   8.3938376498560014      -0.31537308086210836       0.35974182847416886        1.1018217971720319E-007   7.4107753173012430E-007
   9.8974679088473625      -0.31663164905919627       0.35974071182094342        1.1046542368237218E-007   8.5154295541249646E-007
   11.491315983378204      -0.31785945146161898       0.35973962213380856        1.1065493059560012E-007   9.6219788600809661E-007
   13.180794942380897      -0.31907310595095789       0.35973854468359090        1.1076979458685668E-007   1.0729676805949532E-006
   14.971642638923752      -0.32028726618327946       0.35973746646787841        1.1082304017936294E-007   1.1837907207743162E-006
   16.869941197259177      -0.32151522231106200       0.35973637568029854        1.1082431153130809E-007   1.2946150323056243E-006
   18.882137669094728      -0.32276919171285007       0.35973526145388662        1.1078118565657305E-007   1.4053962179621973E-006
   21.015065929240414      -0.32406046575663566       0.35973411373165881        1.1069982447439825E-007   1.5160960424365955E-006
   23.275969884994840      -0.32539949985484451       0.35973292318715827        1.1058530995476493E-007   1.6266813523913605E-006
   25.672528078094530      -0.32679599071105048       0.35973168115610005        1.1044183412823373E-007   1.7371231865195943E-006
   28.212879762780204      -0.32825896012992056       0.35973037956195691        1.1027282851307392E-007   1.8473960150326681E-006
   30.905652548547017      -0.32979685111298485       0.35972901083041708        1.1008107191432024E-007   1.9574770869469883E-006
   33.759991701459839      -0.33141763483801812       0.35972756779395904        1.0986879194301848E-007   2.0673458788900066E-006
   36.785591203547433      -0.33312892392725652       0.35972604359062016        1.0963776399829946E-007   2.1769836428883061E-006
   39.992726675760281      -0.33493808654471235       0.35972443156180284        1.0938940637497298E-007   2.2863730492632792E-006
   43.392290276305900      -0.33685235631278082       0.35972272515356613        1.0912486852152999E-007   2.3954979177848092E-006
   46.995827692884255      -0.33887893415400760       0.35972091782486204        1.0884510954247070E-007   2.5043430273272798E-006
   50.815577354457311      -0.34102507952454880       0.35971900296496984        1.0855096484977379E-007   2.6128939921770534E-006
   54.864511995724754      -0.34329818984130417       0.35971697382119694        1.0824319989592590E-007   2.7211371920729794E-006
   59.156382715468240      -0.34570586805126768       0.35971482343689715        1.0792255089088167E-007   2.8290597429638613E-006
   63.705765678396340      -0.34825597916582313       0.35971254459907825        1.0758975318917133E-007   2.9366494961530325E-006
   68.528111619100116      -0.35095669716184330       0.35971012979435618        1.0724555858990527E-007   3.0438950547429379E-006
   73.639798316246129      -0.35381654395722584       0.35970757117173813        1.0689074313019326E-007   3.1507857978731313E-006
   79.058186215220900      -0.35684442224973656       0.35970486051063921        1.0652610710744359E-007   3.2573119049805750E-006
   84.801677388134152      -0.36004964392667149       0.35970198919261165        1.0615246908499698E-007   3.3634643740655720E-006
   90.889778031422210      -0.36344195557059805       0.35969894817542142        1.0577065556281003E-007   3.4692350296283821E-006
   97.343164713307544      -0.36703156235679180       0.35969572796830740        1.0538148786839548E-007   3.5746165174967773E-006
   104.18375459610600      -0.37082915140099093       0.35969231860747247        1.0498576766711300E-007   3.6796022851638903E-006
   111.43477987187237      -0.37484591539760320       0.35968870963104227        1.0458426232124078E-007   3.7841865474851311E-006
   119.12086666418472      -0.37909357720152409       0.35968489005289606        1.0417769114890222E-007   3.8883642386340329E-006
   127.26811866403581      -0.38358441585453534       0.35968084833490693        1.0376671344810028E-007   3.9921309520821333E-006
   135.90420578387796      -0.38833129443697306       0.35967657235723494        1.0335191895729439E-007   4.0954828710394279E-006
   145.05845813091065      -0.39334769003095976       0.35967204938639880        1.0293382122181507E-007   4.1984166922612431E-006
   154.76196561876529      -0.39864772600669374       0.35966726604092003        1.0251285412852806E-007   4.3009295463897715E-006
   165.04768355589121      -0.40424620678238526       0.35966220825438433        1.0208937166497886E-007   4.4030189180547508E-006
   175.95054456924470      -0.41015865515783179       0.35965686123581253        1.0166365076361356E-007   4.5046825688183640E-006
   187.50757724339940      -0.41640135227976049       0.35965120942727041        1.0123589691599252E-007   4.6059184657343562E-006
   199.75803187800338      -0.42299031859367614       0.35964523742148413        1.0079439218272993E-007   4.7067128579170865E-006
   212.74351379068358      -0.42994483974365399       0.35963892675928055        1.0036156887089339E-007   4.8070744267879798E-006
   226.50812461812461      -0.43728340784752817       0.35963225959892747        9.9927010984998192E-008   4.9070014377729784E-006
   241.09861209521210      -0.44502574647683368       0.35962521687450588        9.9490617886129369E-008   5.0064920556591076E-006
   256.56452882092486      -0.45319260067289363       0.35961777847769083        9.9052368248721051E-008   5.1055444239078283E-006
   272.95840055018039      -0.46180577555284663       0.35960992321399204        9.8612237273289155E-008   5.2041566611811171E-006
   290.33590458319122      -0.47088819014669347       0.35960162874474944        9.8170201329542032E-008   5.3023268625106595E-006
   308.75605885818271      -0.48046393719488217       0.35959287152326691        9.7726244879058015E-008   5.4000531073897178E-006
   328.28142238967371      -0.49055834700750689       0.35958362672680488        9.7280366637286810E-008   5.4973334740270042E-006
   348.97830773305412      -0.50119805492912128       0.35957386818484688        9.6832584369399900E-008   5.5941660583964039E-006
   370.91700619703738      -0.51241107246402973       0.35956356830360298        9.6382938202711657E-008   5.6905489965991151E-006
   394.17202656885962      -0.52422686233131410       0.35955269798651496        9.5931492540655147E-008   5.7864804891397700E-006
   418.82234816299120      -0.53667641782364028       0.35954122655044324        9.5478336761537932E-008   5.8819588259013081E-006
   444.95168905277069      -0.54979234690496481       0.35952912163715961        9.5023584930806972E-008   5.9769824108321151E-006
   472.64879039593694      -0.56360896152359974       0.35951634911973945        9.4567374766542115E-008   6.0715497855986574E-006
   502.00771781969320      -0.57816237264750170       0.35950287300342376        9.4109866085134677E-008   6.1656596516837923E-006
   533.12818088887479      -0.59349059155368500       0.35948865532050478        9.3651238924834855E-008   6.2593108906086269E-006
   566.11587174220733      -0.60963363792646241       0.35947365601877773        9.3191691506845374E-008   6.3525025821154726E-006
   601.08282404673980      -0.62663365534285831       0.35945783284308630        9.2731438152182081E-008   6.4452340202676547E-006
   638.14779348954426      -0.64453503475157081       0.35944114120947651        9.2270707234646273E-008   6.5375047275023011E-006
   677.43666109891694      -0.66338454658530566       0.35942353407145639        9.1809739215857022E-008   6.6293144667181585E-006
   719.08286076485194      -0.68323148218819962       0.35940496177783449        9.1348784783966822E-008   6.7206632515021250E-006
   763.22783241074308      -0.70412864078440840       0.35938537113761687        9.0894345967498834E-008   6.8115575974696242E-006
   810.02150235538772      -0.72612966868853368       0.35936470790597042        9.0434629342269172E-008   6.9019922268118935E-006
   859.62279249671099      -0.74929272559166604       0.35934291334150414        8.9975705052923307E-008   6.9919679318648164E-006
   912.20016004651370      -0.77367883542652549       0.35931992574364152        8.9517879552345810E-008   7.0814858114171622E-006
   967.93216964930457      -0.79935240252960238       0.35929567996359441        8.9061428718717432E-008   7.1705472401358798E-006
   1027.0080998282629      -0.82638144078244435       0.35927010718552349        8.8606628576997687E-008   7.2591538687128772E-006
   1089.6285858179588      -0.85483780635134532       0.35924313470616248        8.8153754934300202E-008   7.3473076236471774E-006
   1156.0063009670364      -0.88479744635894308       0.35921468570173282        8.7703082053096122E-008   7.4350107057002736E-006
   1226.3666790250586      -0.91634066625514143       0.35918467897999545        8.7254881331322338E-008   7.5222655870315958E-006
   1300.9486797665622      -0.94955241770368826       0.35915302871624677        8.6809420068221908E-008   7.6090750070998180E-006
   1380.0056005525560      -0.98452260880335363       0.35911964417214642        8.6366960312168880E-008   7.6954419674119870E-006
   1463.8059365857093       -1.0213464386251960       0.35908442939620172        8.5927757784354870E-008   7.7813697251963413E-006
   1552.6342927808519       -1.0601247582498421       0.35904728290465410        8.5492060874952319E-008   7.8668617860712940E-006
   1646.7923503477032       -1.1009644607167040       0.35900809734141831        8.5060109711480392E-008   7.9519218957827749E-006
   1746.5998913685655       -1.1439789025521574       0.35896675911562997        8.4632135301122886E-008   8.0365540310838978E-006
   1852.3958848506795       -1.1892880192571049       0.35892314834330269        8.4206689392529591E-008   8.1207607204764273E-006
   1964.5396379417205       -1.2370199746151249       0.35887713732313192        8.3787263553971891E-008   8.2045479840303987E-006
   2083.4120162182239       -1.2873102388500079       0.35882859149900431        8.3372432016706738E-008   8.2879204160471054E-006
   2209.4167371913172       -1.3403029835015774       0.35877736820825895        8.2962385829092874E-008   8.3708828018761984E-006
   2342.9817414227964       -1.3961515402730389       0.35872331634697047        8.2557304778045866E-008   8.4534401066542438E-006
   2484.5606459081641       -1.4550190840646464       0.35866627583895044        8.2157353638883556E-008   8.5355974602931282E-006
   2634.6342846626540       -1.5170793803794578       0.35860607706514513        8.1762683276481325E-008   8.6173601435696100E-006
   2793.7123417424132       -1.5825175987703388       0.35854254025530580        8.1373431014192737E-008   8.6987335745838025E-006
   2962.3350822469583       -1.6515311994708666       0.35847547483906450        8.0989720715535466E-008   8.7797232952993375E-006
   3141.0751871817761       -1.7243309011814894       0.35840467875335913        8.0611662801399721E-008   8.8603349581007373E-006
   3330.5396984126828       -1.8011417537447700       0.35832993768852905        8.0239957281459862E-008   8.9405749153821967E-006
   3531.3720803174438       -1.8822042549872113       0.35825102433841882        7.9873474066232155E-008   9.0204483894484296E-006
   3744.2544051364907       -1.9677757002184815       0.35816769747827693        7.9512921970606144E-008   9.0999613114190349E-006
   3969.9096694446803       -2.0581314411829954       0.35807970119338450        7.9158343500324879E-008   9.1791196549193597E-006
   4209.1042496113614       -2.1535665049540720       0.35798676382946276        7.8809777865023848E-008   9.2579294327843838E-006
   4462.6505045880431       -2.2543972613553538       0.35788859697913999        7.8467255082169616E-008   9.3363966878665541E-006
   4731.4095348633255       -2.3609634257405712       0.35778489423826576        7.8130456622460914E-008   9.4145271444890146E-006
   5016.2941069551252       -2.4736295214026400       0.35767533059905954        7.7800076910826274E-008   9.4923272213998412E-006
   5318.2717533724335       -2.5927878136942839       0.35755956053906457        7.7475732138085712E-008   9.5698029535379263E-006
   5638.3680585747798       -2.7188605082242332       0.35743721697494379        7.7157418969986306E-008   9.6469603725079122E-006
   5977.6701420892668       -2.8523024459643933       0.35730790990366368        7.6845109773118254E-008   9.7238054822810313E-006
   6337.3303506146231       -2.9936037972278142       0.35717122524044981        7.6539021815919830E-008   9.8003445040969510E-006
   6718.5701716515005       -3.1432945976119715       0.35702672210238845        7.6238553855436313E-008   9.8765830579523880E-006
   7122.6843819505912       -3.3019469383062372       0.35687393262466383        7.5943931892503353E-008   9.9525269898448920E-006
   7551.0454448676273       -3.4701797367237042       0.35671235958163822        7.5655039749064753E-008   1.0028182029593956E-005
   8005.1081715596856       -3.6486637801200090       0.35654147410274978        7.5371514974670561E-008   1.0103553544568626E-005
   8486.4146618532668       -3.8381247630068551       0.35636071570864319        7.5093685786832998E-008   1.0178647230355460E-005
   8996.5995415644629       -4.0393512524156439       0.35616948808929366        7.4821089196523711E-008   1.0253468319551984E-005
   9537.3955140583312       -4.2531989158829289       0.35596715899197173        7.4553733383204102E-008   1.0328022052935187E-005
   10110.639244901831       -4.4805999910685079       0.35575305574331678        7.4290922588782973E-008   1.0402312975523971E-005
   10718.277599595942       -4.7225677227862350       0.35552646624409784        7.4032600890131853E-008   1.0476345576414103E-005
   11362.374255571698       -4.9802076325537339       0.35528663432424917        7.3778150595523456E-008   1.0550123727009626E-005
   12045.116710906001       -5.2547229729922593       0.35503276146851992        7.3527636957638534E-008   1.0623651363967265E-005
   12768.823713560361       -5.5474290300207656       0.35476400134375091        7.3280546896888433E-008   1.0696931910864153E-005
   13535.953136373984       -5.8597673699349970       0.35447945572262973        7.3035903335026106E-008   1.0769967814199179E-005
   14349.110324556425       -6.1933157078171588       0.35417817584544442        7.2793136657581150E-008   1.0842760950856760E-005
   15211.056944029811       -6.5497985637365126       0.35385916450750804        7.2552372214099435E-008   1.0915313323070859E-005
   16124.720360671601       -6.9311201128455480       0.35352136014919516        7.2311988826918577E-008   1.0987625311897778E-005
   17093.203582311897       -7.3393656280307740       0.35316365128206084        7.2072186729688693E-008   1.1059697498627468E-005
   18093.203582311897       -7.7654001641656878       0.35279470608099928        7.1837500058886495E-008   1.1131534998686354E-005
   19093.203582311897       -8.1961163301034503       0.35242620810914621        7.1614044274941769E-008   1.1203149042961296E-005
   20093.203582311897       -8.6316645268056877       0.35205815070706825        7.1400382756753860E-008   1.1274549425718050E-005
   21093.203582311897       -9.0721866911102271       0.35169053033500930        7.1195263729466413E-008   1.1345744689447517E-005
   22093.203582311897       -9.5178179301764381       0.35132334580754326        7.0997671200656622E-008   1.1416742360648174E-005
   23093.203582311897       -9.9686880578243340       0.35095659752191349        7.0806776755730778E-008   1.1487549137403905E-005
   24093.203582311897       -10.424922839830517       0.35059028686721844        7.0621902376247850E-008   1.1558171039780153E-005
   25093.203582311897       -10.886647679585556       0.35022441367311469        7.0442256367295210E-008   1.1628613296147448E-005
   26093.203582311897       -11.353977964755359       0.34985898415555777        7.0267925518683229E-008   1.1698881221666131E-005
   27093.203582311897       -11.827034583650111       0.34949399889291499        7.0098177973280446E-008   1.1768979399639411E-005
   28093.203582311897       -12.305935939303732       0.34912945947496943        6.9932723508239378E-008   1.1838912123147649E-005
   29093.203582311897       -12.790799645663974       0.34876536738083147        6.9771304322695241E-008   1.1908683427470344E-005
   30093.203582311897       -13.281743126203924       0.34840172372513084        6.9613700198450675E-008   1.1978297127668794E-005
   31093.203582311897       -13.778883988502130       0.34803852916600564        6.9459723324582287E-008   1.2047756850993377E-005
   32093.203582311897       -14.282340317383527       0.34767578386214243        6.9309212639878788E-008   1.2117066063633255E-005
   33093.203582311893       -14.792230919721613       0.34731348745408153        6.9162028909388670E-008   1.2186228092542644E-005
   34093.203582311893       -15.308675534322951       0.34695163906061721        6.9018050628566936E-008   1.2255246143171211E-005
   35093.203582311893       -15.831795014771632       0.34659023728539690        6.8877170665385537E-008   1.2324123313836597E-005
   36093.203582311893       -16.361711490741815       0.34622928023056870        6.8739293524270270E-008   1.2392862607360867E-005
   37093.203582311893       -16.898548511962336       0.34586876551525308        6.8604333124263188E-008   1.2461466940485131E-005
   38093.203582311893       -17.442431178120081       0.34550869029721326        6.8472210999164684E-008   1.2529939151484296E-005
   39093.203582311893       -17.993486257318679       0.34514905129652795        6.8342854841942562E-008   1.2598282006326238E-005
   40093.203582311893       -18.551842295228582       0.34478984482036462        6.8216197330321508E-008   1.2666498203656561E-005
   41093.203582311893       -19.117625119194880       0.34443106968257897        6.8092466988780319E-008   1.2734590670645340E-005
   42093.203582311893       -19.690975666717378       0.34407271601723699        6.7970943225838345E-008   1.2802561613871179E-005
   43093.203582311893       -20.272025456856266       0.34371478095192465        6.7851976081224170E-008   1.2870413589952404E-005
   44093.203582311893       -20.860910461198614       0.34335725980695297        6.7735485433040528E-008   1.2938149075385444E-005
