 #              _____________________  _______________________             #
 #              ___  __ \__  __ \_  / / /_  /___  ____/_  ___/             #
 #              __  / / /_  /_/ /  / / /_  __/_  __/  _____ \              #
 #              _  /_/ /_  _, _// /_/ / / /_ _  /___  ____/ /              #
 #              /_____/ /_/ |_| \____/  \__/ /_____/  /____/               #
 #                                                                         #
  
 #        time                      h  [L]                   theta [-]       Darcian flow [L.T^{-1}]   in    x              directions   cumulative flux
 #-----------------------------------------------------------------------------------------------

   0.0000000000000000      -0.20000000000000001       0.35984249177530825        1.2548996820743664E-024   1.2548996820743664E-024
   1.0000000000000000      -0.20011339364422770       0.35984239477984414        2.2467525608399777E-009   2.2467525608399789E-009
   2.0600000000000001      -0.20040690409326750       0.35984214369379419        6.9670788138787456E-009   9.2138313747187249E-009
   3.1836000000000002      -0.20087745188675440       0.35984174109652856        1.3045349913603484E-008   2.2259181288322209E-008
   4.3746160000000005      -0.20149347248290658       0.35984121391660934        1.9391705555432251E-008   4.1650886843754457E-008
   5.6370929600000004      -0.20222342931922907       0.35984058906051919        2.5352925148804973E-008   6.7003811992559426E-008
   6.9753185376000006      -0.20304484710448184       0.35983988569062142        3.0632523762977815E-008   9.7636335755537242E-008
   8.3938376498560014      -0.20394423607748449       0.35983911528692891        3.5140335052938494E-008   1.3277667080847574E-007
   9.8974679088473625      -0.20491463832447243       0.35983828374146565        3.8889773874672549E-008   1.7166644468314829E-007
   11.491315983378204      -0.20595329426836187       0.35983739335084286        4.1942070262939887E-008   2.1360851494608818E-007
   13.180794942380897      -0.20705999065448791       0.35983644422711614        4.4378027209783367E-008   2.5798654215587153E-007
   14.971642638923752      -0.20823602943726863       0.35983543517832844        4.6283706686397455E-008   3.0427024884226898E-007
   16.869941197259177      -0.20948363240247922       0.35983436421670245        4.7742982236694159E-008   3.5201323107896312E-007
   18.882137669094728      -0.21080561821218285       0.35983322883389840        4.8833610752314772E-008   4.0084684183127789E-007
   21.015065929240414      -0.21220523760656929       0.35983202614093363        4.9625242745895202E-008   4.5047208457717309E-007
   23.275969884994840      -0.21368609503587985       0.35983075293405370        5.0178587406728730E-008   5.0065067198390185E-007
   25.672528078094530      -0.21525211490505497       0.35982940572230260        5.0545310426163399E-008   5.5119598241006522E-007
   28.212879762780204      -0.21690752957808707       0.35982798073633837        5.0768412437792897E-008   6.0196439484785809E-007
   30.905652548547017      -0.21865687747476945       0.35982647392847228        5.0882919669098063E-008   6.5284731451695620E-007
   33.759991701459839      -0.22050500578527582       0.35982488096861504        5.0916763050952856E-008   7.0376407756790908E-007
   36.785591203547433      -0.22245707553849270       0.35982319723805978        5.0891749455997010E-008   7.5465582702390614E-007
   39.992726675760281      -0.22451856829510011       0.35982141782171723        5.0824549226729384E-008   8.0548037625063549E-007
   43.392290276305900      -0.22669529438505159       0.35981953749885981        5.0727642149725224E-008   8.5620801840036074E-007
   46.995827692884255      -0.22899340281951397       0.35981755073224769        5.0610180918714512E-008   9.0681819931907529E-007
   50.815577354457311      -0.23141939302099238       0.35981545165549905        5.0478746795720105E-008   9.5729694611479548E-007
   54.864511995724754      -0.23398012845551738       0.35981323405861371        5.0337985965791350E-008   1.0076349320805869E-006
   59.156382715468240      -0.23668285217667623       0.35981089137162509        5.0191126318464234E-008   1.0578260583990511E-006
   63.705765678396340      -0.23953520422867461       0.35980841664640600        5.0040382685510871E-008   1.1078664410845620E-006
   68.528111619100116      -0.24254524081319395       0.35980580253669198        4.9887263883572297E-008   1.1577537049681342E-006
   73.639798316246129      -0.24572145510315860       0.35980304127640328        4.9732797544714187E-008   1.2074865025128484E-006
   79.058186215220900      -0.24907279958230566       0.35980012465634997        4.9577689183353151E-008   1.2570641916962016E-006
   84.801677388134152      -0.25260870979823019       0.35979704399939905        4.9422430865775803E-008   1.3064866225619774E-006
   90.889778031422210      -0.25633912943404408       0.35979379013416551        4.9267372831382187E-008   1.3557539953933597E-006
   97.343164713307544      -0.26027453662630096       0.35979035336727211        4.9112768988354852E-008   1.4048667643817146E-006
   104.18375459610600      -0.26442597148207297       0.35978672345419999        4.8958804765273991E-008   1.4538255691469887E-006
   111.43477987187237      -0.26880506477436383       0.35978288956873122        4.8805613597425115E-008   1.5026311827444137E-006
   119.12086666418472      -0.27342406782195711       0.35977884027096091        4.8653286491073265E-008   1.5512844692354870E-006
   127.26811866403581      -0.27829588358689378       0.35977456347383330        4.8501877674238382E-008   1.5997863469097254E-006
   135.90420578387796      -0.28343409905025418       0.35977004640813504        4.8351408278393543E-008   1.6481377551881190E-006
   145.05845813091065      -0.28885301895451060       0.35976527558585208        4.8201869242912451E-008   1.6963396244310315E-006
   154.76196561876529      -0.29456770102829033       0.35976023676177676        4.8053224121340347E-008   1.7443928485523719E-006
   165.04768355589121      -0.30059399283628485       0.35975491489322609        4.7905412130156893E-008   1.7922982606825288E-006
   175.95054456924470      -0.30694857042247237       0.35974929409771095        4.7758351563897487E-008   1.8400566122464264E-006
   187.50757724339940      -0.31364897893790578       0.35974335760837733        4.7611943565587286E-008   1.8876685558120135E-006
   199.75803187800338      -0.32071311809957753       0.35973708822210310        4.7464531516994025E-008   1.9351330873290077E-006
   212.74351379068358      -0.32816087066479499       0.35973046684545601        4.7318412306914718E-008   1.9824514996359223E-006
   226.50812461812461      -0.33601265855117957       0.35972347376401526        4.7172937882566408E-008   2.0296244375184888E-006
   241.09861209521210      -0.34428995109620919       0.35971608818192102        4.7027757081487456E-008   2.0766521945999763E-006
   256.56452882092486      -0.35301532445288991       0.35970828815821071        4.6882661804814428E-008   2.1235348564047906E-006
   272.95840055018039      -0.36221252065440379       0.35970005054291043        4.6737505262315042E-008   2.1702723616671056E-006
   290.33590458319122      -0.37190650892765365       0.35969135091060073        4.6592168903932324E-008   2.2168645305710380E-006
   308.75605885818271      -0.38212355055935360       0.35968216349029830        4.6446551534489726E-008   2.2633110821055278E-006
   328.28142238967371      -0.39289126775550420       0.35967246109126194        4.6300566466419665E-008   2.3096116485719473E-006
   348.97830773305412      -0.40423871674741041       0.35966221502449847        4.6154141163537868E-008   2.3557657897354853E-006
   370.91700619703738      -0.41619646535019006       0.35965139501979504        4.6007217441834312E-008   2.4017730071773196E-006
   394.17202656885962      -0.42879667515983960       0.35963996913812429        4.5859751630585482E-008   2.4476327588079052E-006
   418.82234816299120      -0.44207318856205086       0.35962790367929143        4.5711714562273633E-008   2.4933444733701790E-006
   444.95168905277069      -0.45606162071544382       0.35961516308470670        4.5563091408618502E-008   2.5389075647787975E-006
   472.64879039593694      -0.47079945666254225       0.35960170983519091        4.5413881417523971E-008   2.5843214461963215E-006
   502.00771781969320      -0.48632615371402499       0.35958750434373710        4.5264097599939118E-008   2.6295855437962605E-006
   533.12818088887479      -0.50268324924684282       0.35957250484317455        4.5113766395512189E-008   2.6746993101917727E-006
   566.11587174220733      -0.51991447405722691       0.35955666726869639        4.4962927318898564E-008   2.7196622375106712E-006
   601.08282404673980      -0.53806587141844586       0.35953994513522380        4.4811632561122858E-008   2.7644738700717939E-006
   638.14779348954426      -0.55718592201569972       0.35952228940958370        4.4659946494915693E-008   2.8091338165667097E-006
   677.43666109891694      -0.57732567497064891       0.35950364837746174        4.4507945012884850E-008   2.8536417615795944E-006
   719.08286076485194      -0.59853888523214660       0.35948396750506284        4.4355714612949786E-008   2.8979974761925443E-006
   763.22783241074308      -0.62088257974211103       0.35946318890241830        4.4203690863618154E-008   2.9422011670561626E-006
   810.02150235538772      -0.64441603154421678       0.35944125226802054        4.4051447206336507E-008   2.9862526142624993E-006
   859.62279249671099      -0.66920197762597211       0.35941809375152889        4.3899195612163437E-008   3.0301518098746625E-006
   912.20016004651370      -0.69530651738762428       0.35939364604138430        4.3747122260224132E-008   3.0738989321348869E-006
   967.93216964930457      -0.72279925939682110       0.35936783822477419        4.3595352988340940E-008   3.1174942851232278E-006
   1027.0080998282629      -0.75175350789162099       0.35934059561313936        4.3443997123879784E-008   3.1609382822471077E-006
   1089.6285858179588      -0.78224646414170484       0.35931183955673485        4.3293153499598033E-008   3.2042314357467057E-006
   1156.0063009670364      -0.81435944239151781       0.35928148724897374        4.3142907542726526E-008   3.2473743432894322E-006
   1226.3666790250586      -0.84817810236239255       0.35924945151922971        4.2993326727045077E-008   3.2903676700164775E-006
   1300.9486797665622      -0.88379270067810245       0.35921564061246541        4.2844455826411003E-008   3.3332121258428884E-006
   1380.0056005525560      -0.92129836383827735       0.35917995795387175        4.2696312392573494E-008   3.3759084382354617E-006
   1463.8059365857093      -0.96079538560394673       0.35914230189654717        4.2548882730498560E-008   3.4184573209659603E-006
   1552.6342927808519       -1.0023895518830468       0.35910256545012376        4.2402118622337185E-008   3.4608594395882975E-006
   1646.7923503477032       -1.0461924964144007       0.35906063598815152        4.2255935032340499E-008   3.5031153746206380E-006
   1746.5998913685655       -1.0923220907520732       0.35901639493198356        4.2110208996468576E-008   3.5452255836171064E-006
   1852.3958848506795       -1.1409025547218845       0.35896971771422825        4.1964580049096191E-008   3.5871901636662026E-006
   1964.5396379417205       -1.1920658198017668       0.35892047255064163        4.1819199221287727E-008   3.6290093628874904E-006
   2083.4120162182239       -1.2459512281767575       0.35886852082312665        4.1673715853798006E-008   3.6706830787412886E-006
   2209.4167371913172       -1.3027063134279850       0.35881371644147114        4.1527841678918373E-008   3.7122109204202071E-006
   2342.9817414227964       -1.3624874477060884       0.35875590535054253        4.1381293005997439E-008   3.7535922134262045E-006
   2484.5606459081641       -1.4254605234706470       0.35869492502476852        4.1233772959205313E-008   3.7948259863854098E-006
   2634.6342846626540       -1.4918017000810182       0.35863060392381035        4.1084976581876707E-008   3.8359109629672868E-006
   2793.7123417424132       -1.5616982217681057       0.35856276090660283        4.0934598971655422E-008   3.8768455619389423E-006
   2962.3350822469583       -1.6353493131757739       0.35849120460181577        4.0782343817111880E-008   3.9176279057560543E-006
   3141.0751871817761       -1.7129671592131592       0.35841573273289590        4.0627931835487570E-008   3.9582558375915420E-006
   3330.5396984126828       -1.7947783583250665       0.35833613102444706        4.0471310312849745E-008   3.9987271479043922E-006
   3531.3720803174438       -1.8810240071409328       0.35825217348871130        4.0311894934907364E-008   4.0390390428392993E-006
   3744.2544051364907       -1.9719620093007255       0.35816362060417761        4.0149655767353330E-008   4.0791886986066528E-006
   3969.9096694446803       -2.0678681691954228       0.35807021873963318        3.9984473139916904E-008   4.1191731717465694E-006
   4209.1042496113614       -2.1690376972402596       0.35797169925190409        3.9816259502763801E-008   4.1589894312493333E-006
   4462.6505045880431       -2.2757868770901646       0.35786777751088800        3.9644979545088954E-008   4.1986344107944220E-006
   4731.4095348633255       -2.3884544455928611       0.35775815230159225        3.9470460309577992E-008   4.2381048711040001E-006
   5016.2941069551252       -2.5074048289479327       0.35764250353214183        3.9293124782910892E-008   4.2773979958869108E-006
   5318.2717533724335       -2.6330291099532133       0.35752049227963306        3.9112953236397587E-008   4.3165109491233084E-006
   5638.3680585747798       -2.7657477693904120       0.35739175925710454        3.8930120411872944E-008   4.3554410695351813E-006
   5977.6701420892668       -2.9060132934271854       0.35725592358157982        3.8744866509520239E-008   4.3941859360447013E-006
   6337.3303506146231       -3.0543135897659837       0.35711258095513965        3.8557691030121515E-008   4.4327436270748226E-006
   6718.5701716515005       -3.2111734536510390       0.35696130395427567        3.8368554584361917E-008   4.4711121816591842E-006
   7122.6843819505912       -3.3771595839517805       0.35680163913944601        3.8177998577816209E-008   4.5092901802370004E-006
   7551.0454448676273       -3.5528838491851822       0.35663310615371735        3.7986440296448821E-008   4.5472766205334495E-006
   8005.1081715596856       -3.7390066763929575       0.35645519702803335        3.7794080532226038E-008   4.5850707010656754E-006
   8486.4146618532668       -3.9362438262014994       0.35626737262941105        3.7601765194047919E-008   4.6226724662597237E-006
   8996.5995415644629       -4.1453694203445846       0.35606906313726128        3.7409755407770647E-008   4.6600822216674944E-006
   9537.3955140583312       -4.3672232235960111       0.35585966495880950        3.7218704910148313E-008   4.6973009265776427E-006
   10110.639244901831       -4.6027144452472024       0.35563854151229984        3.7028619148303678E-008   4.7343295457259467E-006
   10718.277599595942       -4.8528313149269264       0.35540501920142631        3.6840055873000296E-008   4.7711696015989466E-006
   11362.374255571698       -5.1186469227130473       0.35515838766022978        3.6653073890461065E-008   4.8078226754894073E-006
   12045.116710906001       -5.4013318229932983       0.35489789455356219        3.6468419330343489E-008   4.8442910948197505E-006
   12768.823713560361       -5.7021621210851396       0.35462274560489271        3.6286355533365810E-008   4.8805774503531167E-006
   13535.953136373984       -6.0225278718187694       0.35433210537618065        3.6106525385104460E-008   4.9166839757382213E-006
   14349.110324556425       -6.3639480859391364       0.35402509325736042        3.5928881424540909E-008   4.9526128571627618E-006
   15211.056944029811       -6.7280914125972631       0.35370077597181959        3.5754215483653142E-008   4.9883670726464153E-006
   16124.720360671601       -7.1167810308239190       0.35335817593919672        3.5581501152441244E-008   5.0239485737988565E-006
   17093.203582311897       -7.5320269849774633       0.35299625711955646        3.5411406322285755E-008   5.0593599801211421E-006
   18093.203582311897       -7.9644330520017155       0.35262386296147552        3.5246888886992695E-008   5.0946068690081346E-006
   19093.203582311897       -8.4006698525146533       0.35225278059430265        3.5092028972316257E-008   5.1296988979804507E-006
   20093.203582311897       -8.8409099048152093       0.35188295411508236        3.4946067429418168E-008   5.1646449654098691E-006
   21093.203582311897       -9.2853154043424677       0.35151433333788179        3.4807982153646116E-008   5.1994529475635154E-006
   22093.203582311897       -9.7340397883823986       0.35114687309792475        3.4676888629506016E-008   5.2341298361930217E-006
   23093.203582311897       -10.187229452736807       0.35078053231667844        3.4552036515009415E-008   5.2686818727080310E-006
   24093.203582311897       -10.645025135791887       0.35041527327035837        3.4432789244947466E-008   5.3031146619529788E-006
   25093.203582311897       -11.107560860169171       0.35005106272279951        3.4318405975420448E-008   5.3374330679283995E-006
   26093.203582311897       -11.574971986678595       0.34968786585312756        3.4208855885579440E-008   5.3716419238139793E-006
   27093.203582311897       -12.047388075856684       0.34932565216758060        3.4103517102711110E-008   5.4057454409166907E-006
   28093.203582311897       -12.524936484466489       0.34896439283312042        3.4002041113463437E-008   5.4397474820301542E-006
   29093.203582311897       -13.007742915459003       0.34860406043389214        3.3904139131670813E-008   5.4736516211618252E-006
   30093.203582311897       -13.495931836740938       0.34824462880933799        3.3809560624546550E-008   5.5074611817863717E-006
   31093.203582311897       -13.989626841195841       0.34788607292005269        3.3718086982415082E-008   5.5411792687687868E-006
   32093.203582311897       -14.488950955982995       0.34752836873769549        3.3629526507099844E-008   5.5748087952758865E-006
   33093.203582311893       -14.994026909803248       0.34717149315430246        3.3543710123436655E-008   5.6083525053993230E-006
   34093.203582311893       -15.504977365336755       0.34681542390716547        3.3460487768215687E-008   5.6418129931675388E-006
   35093.203582311893       -16.021925122722521       0.34646013951621496        3.3379725375435423E-008   5.6751927185429739E-006
   36093.203582311893       -16.544993298894738       0.34610561923144578        3.3301302368675827E-008   5.7084940209116501E-006
   37093.203582311893       -17.074305486767148       0.34575184298839784        3.3225109578437476E-008   5.7417191304900875E-006
   38093.203582311893       -17.609985897572681       0.34539879137008683        3.3151047513613802E-008   5.7748701780037011E-006
   39093.203582311893       -18.152159489086252       0.34504644557411013        3.3079024927105740E-008   5.8079492029308065E-006
   40093.203582311893       -18.700952082014055       0.34469478738389797        3.3008957625107143E-008   5.8409581605559140E-006
   41093.203582311893       -19.256493372374262       0.34434379732025966        3.2940937289474337E-008   5.8738990978453882E-006
   42093.203582311893       -19.818907615992810       0.34399346056942326        3.2874534196397888E-008   5.9067736320417858E-006
   43093.203582311893       -20.388323964257332       0.34364376042835065        3.2809854391499846E-008   5.9395834864332856E-006
   44093.203582311893       -20.964872870440722       0.34329468066235275        3.2746852263307459E-008   5.9723303386965932E-006
