 #              _____________________  _______________________             #
 #              ___  __ \__  __ \_  / / /_  /___  ____/_  ___/             #
 #              __  / / /_  /_/ /  / / /_  __/_  __/  _____ \              #
 #              _  /_/ /_  _, _// /_/ / / /_ _  /___  ____/ /              #
 #              /_____/ /_/ |_| \____/  \__/ /_____/  /____/               #
 #                                                                         #
  
 #        time                      h  [L]                   theta [-]       Darcian flow [L.T^{-1}]   in    x              directions   cumulative flux
 #-----------------------------------------------------------------------------------------------

   0.0000000000000000      -0.28000000000000003       0.35977306608771875        1.6806575933321869E-021   1.6806575933321869E-021
   1.0000000000000000      -0.28230241456727079       0.35977104184357089        4.2916215502771782E-008   4.2916215502773463E-008
   2.0600000000000001      -0.28447531895472467       0.35976913026940649        6.4819667366516136E-008   1.0773588286928960E-007
   3.1836000000000002      -0.28637027319862179       0.35976746227873863        7.5829540532318369E-008   1.8356542340160798E-007
   4.3746160000000005      -0.28807102207319241       0.35976596449401832        8.2207249882401926E-008   2.6577267328400992E-007
   5.6370929600000004      -0.28964320910224578       0.35976457931105993        8.6364970518580030E-008   3.5213764380258992E-007
   6.9753185376000006      -0.29112922879748465       0.35976326950388315        8.9286770371163283E-008   4.4142441417375321E-007
   8.3938376498560014      -0.29255808541572514       0.35976200958707610        9.1429074511863050E-008   5.3285348868561627E-007
   9.8974679088473625      -0.29395150452750274       0.35976078045360188        9.3030573608312521E-008   6.2588406229392881E-007
   11.491315983378204      -0.29532715475516624       0.35975956654667363        9.4230093294882924E-008   7.2011415558881177E-007
   13.180794942380897      -0.29670031139426578       0.35975835439910603        9.5116857501594212E-008   8.1523101309040594E-007
   14.971642638923752      -0.29808470089120509       0.35975713189196973        9.5753790576059065E-008   9.1098480366646498E-007
   16.869941197259177      -0.29949291639556874       0.35975588789001756        9.6188826568156712E-008   1.0071736302346217E-006
   18.882137669094728      -0.30093661681144940       0.35975461206728049        9.6460492660560222E-008   1.1036341228951819E-006
   21.015065929240414      -0.30242662692231398       0.35975329481947521        9.6600684345856944E-008   1.2002348072410388E-006
   23.275969884994840      -0.30397300236972929       0.35975192720711491        9.6636083543531423E-008   1.2968708907845703E-006
   25.672528078094530      -0.30558509169889259       0.35975050090096689        9.6588956742783790E-008   1.3934598475273540E-006
   28.212879762780204      -0.30727160916186930       0.35974900811779509        9.6477698948993600E-008   1.4899375464763476E-006
   30.905652548547017      -0.30904072146195549       0.35974744154357730        9.6317292015590583E-008   1.5862548384919381E-006
   33.759991701459839      -0.31090014610997441       0.35974579424624525        9.6119743096707456E-008   1.6823745815886455E-006
   36.785591203547433      -0.31285725664478214       0.35974405958212929        9.5894518354698062E-008   1.7782690999433436E-006
   39.992726675760281      -0.31491918942460134       0.35974223110077547        9.5648965096639038E-008   1.8739180650399827E-006
   43.392290276305900      -0.31709294722815262       0.35974030245233446        9.5388708719821550E-008   1.9693067737598041E-006
   46.995827692884255      -0.31938549598896465       0.35973826730077302        9.5118011557819998E-008   2.0644247853176239E-006
   50.815577354457311      -0.32180385227027403       0.35973611924502336        9.4840084636466480E-008   2.1592648699540905E-006
   54.864511995724754      -0.32435516033790251       0.35973385174908740        9.4557348108996421E-008   2.2538222180630868E-006
   59.156382715468240      -0.32704675875888634       0.35973145808116563        9.4271640498278199E-008   2.3480938585613651E-006
   63.705765678396340      -0.32988623726834787       0.35972893126115912        9.3984380249059641E-008   2.4420782388104250E-006
   68.528111619100116      -0.33288148518463284       0.35972626401541674        9.3696685306249914E-008   2.5357749241166750E-006
   73.639798316246129      -0.33604073293254350       0.35972344873734713        9.3409457551605950E-008   2.6291843816682808E-006
   79.058186215220900      -0.33937258830164313       0.35972047745245456        9.3123439149214089E-008   2.7223078208174950E-006
   84.801677388134152      -0.34288606897897572       0.35971734178642684        9.2839247428601170E-008   2.8151470682460961E-006
   90.889778031422210      -0.34659063271146590       0.35971403293506976        9.2557394126087325E-008   2.9077044623721833E-006
   97.343164713307544      -0.35049620622382405       0.35971054163507565        9.2278293830420360E-008   2.9999827562026037E-006
   104.18375459610600      -0.35461321378189081       0.35970685813482500        9.2002265497193160E-008   3.0919850216997970E-006
   111.43477987187237      -0.35895260607468032       0.35970297216460889        9.1729530011321102E-008   3.1837145517111181E-006
   119.12086666418472      -0.36352588990463253       0.35969887290581992        9.1460206034075083E-008   3.2751747577451931E-006
   127.26811866403581      -0.36834515902911713       0.35969454895879099        9.1194305781535209E-008   3.3663690635267285E-006
   135.90420578387796      -0.37342312638534714       0.35968998830905724        9.0931731926299455E-008   3.4573007954530279E-006
   145.05845813091065      -0.37877315785055393       0.35968517829188890        9.0672276464966416E-008   3.5479730719179944E-006
   154.76196561876529      -0.38440930763381942       0.35968010555499141        9.0415622119086240E-008   3.6383886940370806E-006
   165.04768355589121      -0.39034635535966766       0.35967475601930265        9.0161346608929412E-008   3.7285500406460102E-006
   175.95054456924470      -0.39659984488219757       0.35966911483783737        8.9908929937401842E-008   3.8184589705834117E-006
   187.50757724339940      -0.40318612485941041       0.35966316635253714        8.9657764635231736E-008   3.9081167352186431E-006
   199.75803187800338      -0.41012162755044917       0.35965689473999302        8.9405580413506925E-008   3.9975223156321500E-006
   212.74351379068358      -0.41742521983378822       0.35965028187863834        8.9154164355153746E-008   4.0866764799873034E-006
   226.50812461812461      -0.42511587090726805       0.35964330944802775        8.8901990001389439E-008   4.1755784699886925E-006
   241.09861209521210      -0.43321355203174988       0.35963595810838539        8.8648054376509915E-008   4.2642265243652023E-006
   256.56452882092486      -0.44173928917448135       0.35962820744428392        8.8391498232783666E-008   4.3526180225979858E-006
   272.95840055018039      -0.45071520231983275       0.35962003592001218        8.8131504495046353E-008   4.4407495270930325E-006
   290.33590458319122      -0.46016455586968769       0.35961142082449826        8.7867295773568006E-008   4.5286168228666006E-006
   308.75605885818271      -0.47011181466404406       0.35960233821071846        8.7598144852508242E-008   4.6162149677191087E-006
   328.28142238967371      -0.48058270400887287       0.35959276283105301        8.7323386980246750E-008   4.7035383546993552E-006
   348.97830773305412      -0.49160427338933316       0.35958266806888789        8.7042430951515723E-008   4.7905807856508707E-006
   370.91700619703738      -0.50320496401633219       0.35957202586634157        8.6754767918926894E-008   4.8773355535697978E-006
   394.17202656885962      -0.51541468054070982       0.35956080664782769        8.6459977591803329E-008   4.9637955311616010E-006
   418.82234816299120      -0.52826486735029499       0.35954897923909723        8.6157731811754197E-008   5.0499532629733552E-006
   444.95168905277069      -0.54178858990558854       0.35953651078136811        8.5847795676640292E-008   5.1358010586499956E-006
   472.64879039593694      -0.55602062159427579       0.35952336664013401        8.5530026494496075E-008   5.2213310851444914E-006
   502.00771781969320      -0.57099753660238706       0.35950951030823192        8.5204370910085265E-008   5.3065354560545767E-006
   533.12818088887479      -0.58675780931627974       0.35949490330274103        8.4870860571057769E-008   5.3914063166256348E-006
   566.11587174220733      -0.60334192078754467       0.35947950505527521        8.4529606695227097E-008   5.4759359233208615E-006
   601.08282404673980      -0.62079247281486272       0.35946327279522294        8.4180793871989259E-008   5.5601167171928507E-006
   638.14779348954426      -0.63915431022545732       0.35944616142547031        8.3824673388866198E-008   5.6439413905817167E-006
   677.43666109891694      -0.65847465197441213       0.35942812339012686        8.3461556323717901E-008   5.7274029469054349E-006
   719.08286076485194      -0.67880323172493329       0.35940910853374625        8.3091806593215923E-008   5.8104947534986504E-006
   763.22783241074308      -0.70019309180940859       0.35938906334819049        8.2718742464878937E-008   5.8932134959635297E-006
   810.02150235538772      -0.72269873009454400       0.35936793270104667        8.2337391472238014E-008   5.9755508874357674E-006
   859.62279249671099      -0.74637849465697226       0.35934565758681886        8.1950663374437120E-008   6.0575015508102047E-006
   912.20016004651370      -0.77129382282236192       0.35932217583246234        8.1559164420076761E-008   6.1390607152302813E-006
   967.93216964930457      -0.79750952536748609       0.35929742182661173        8.1163431862965464E-008   6.2202241470932471E-006
   1027.0080998282629      -0.82509401376245295       0.35927132630358932        8.0764012222970146E-008   6.3009881593162171E-006
   1089.6285858179588      -0.85411953311520250       0.35924381612398598        8.0361462092108039E-008   6.3813496214083255E-006
   1156.0063009670364      -0.88466241114441380       0.35921481404253236        7.9956344109634275E-008   6.4613059655179596E-006
   1226.3666790250586      -0.91680332590667479       0.35918423846115205        7.9549222685433637E-008   6.5408551882033929E-006
   1300.9486797665622      -0.95062759410552822       0.35915200316599910        7.9140659996319924E-008   6.6199958481997129E-006
   1380.0056005525560      -0.98622548181152092       0.35911801704736201        7.8731212314497781E-008   6.6987270605142111E-006
   1463.8059365857093       -1.0236925395807674       0.35908218380126311        7.8321426663902916E-008   6.7770484871781140E-006
   1552.6342927808519       -1.0631299641586955       0.35904440161150036        7.7911837792789984E-008   6.8549603249709040E-006
   1646.7923503477032       -1.1046449891810874       0.35900456281079224        7.7502965451211746E-008   6.9324632904221161E-006
   1746.5998913685655       -1.1483513075377239       0.35896255351959272        7.7095311963363228E-008   7.0095586023854789E-006
   1852.3958848506795       -1.1943690716508351       0.35891825370101493        7.6688099803355951E-008   7.0862467021888352E-006
   1964.5396379417205       -1.2428268620019511       0.35887153533168115        7.6284189349711019E-008   7.1625308915385461E-006
   2083.4120162182239       -1.2938605286011708       0.35882226359425551        7.5882893567875373E-008   7.2384137851064216E-006
   2209.4167371913172       -1.3476145502222825       0.35877029566310109        7.5484599989842059E-008   7.3138983850962635E-006
   2342.9817414227964       -1.4042425764012318       0.35871548029247646        7.5089696698463013E-008   7.3889880817947263E-006
   2484.5606459081641       -1.4639081060805532       0.35865765729290661        7.4698545863763757E-008   7.4636866276584903E-006
   2634.6342846626540       -1.5267852335477337       0.35859665696539550        7.4311482286053360E-008   7.5379981099445437E-006
   2793.7123417424132       -1.5930594618779892       0.35853229949676668        7.3928813108178055E-008   7.6119269230527221E-006
   2962.3350822469583       -1.6629285901447928       0.35846439431412658        7.3550817696971696E-008   7.6854777407496941E-006
   3141.0751871817761       -1.7366036819788386       0.35839273939579147        7.3177747674873783E-008   7.7586554884245687E-006
   3330.5396984126828       -1.8143105629321108       0.35831712010858091        7.2810555076200450E-008   7.8314660435007693E-006
   3531.3720803174438       -1.8962895175316432       0.35823730984458035        7.2448043151279302E-008   7.9039140866520488E-006
   3744.2544051364907       -1.9827983145339370       0.35815306747390135        7.2091058632133137E-008   7.9760051452841820E-006
   3969.9096694446803       -2.0741127382522055       0.35806413728666425        7.1739754758663204E-008   8.0477449000428453E-006
   4209.1042496113614       -2.1705282248587796       0.35797024793267090        7.1394249244076568E-008   8.1191391492869226E-006
   4462.6505045880431       -2.2723615506316208       0.35787111139417166        7.1054636721976129E-008   8.1901937860088981E-006
   4731.4095348633255       -2.3799522627186489       0.35776642230560285        7.0720469590573494E-008   8.2609142555994720E-006
   5016.2941069551252       -2.4936661195992968       0.35765585542929607        7.0392792268067320E-008   8.3313070478675396E-006
   5318.2717533724335       -2.6138955784234610       0.35753906613386810        7.0071141609073984E-008   8.4013781894766137E-006
   5638.3680585747798       -2.7410631570480444       0.35741568822315811        6.9755523554024408E-008   8.4711337130306388E-006
   5977.6701420892668       -2.8756240217372944       0.35728533269058771        6.9445929461856857E-008   8.5405796424924951E-006
   6337.3303506146231       -3.0180694200511766       0.35714758585228518        6.9142787371787941E-008   8.6097224298642826E-006
   6718.5701716515005       -3.1689284290955930       0.35700200933569592        6.8845174234308134E-008   8.6785676040985904E-006
   7122.6843819505912       -3.3287735798626024       0.35684813658071257        6.8553462035772849E-008   8.7471210661343628E-006
   7551.0454448676273       -3.4982238171399866       0.35668547222232583        6.8267561318995515E-008   8.8153886274533581E-006
   8005.1081715596856       -3.6779486257755281       0.35651349068720406        6.7986927895416857E-008   8.8833755553487750E-006
   8486.4146618532668       -3.8686746744659146       0.35633163278201674        6.7712242584835125E-008   8.9510877979336110E-006
   8996.5995415644629       -4.0711890333907714       0.35613930602143989        6.7442921605434754E-008   9.0185307195390461E-006
   9537.3955140583312       -4.2863469554108882       0.35593588112145069        6.7179166153678037E-008   9.0857098856927250E-006
   10110.639244901831       -4.5150766134888052       0.35572069199165335        6.6919998397493754E-008   9.1526298840902190E-006
   10718.277599595942       -4.7583888363986437       0.35549303169192931        6.6665531459675373E-008   9.2192954155498946E-006
   11362.374255571698       -5.0173834982177361       0.35525215234834095        6.6415005181919418E-008   9.2857104207318144E-006
   12045.116710906001       -5.2932611798404059       0.35499726104892576        6.6168868443246253E-008   9.3518792891750613E-006
   12768.823713560361       -5.5873314687126596       0.35472751993328000        6.5926700854534340E-008   9.4178059900295951E-006
   13535.953136373984       -5.9010244307468440       0.35444204450411693        6.5687263100884349E-008   9.4834932531304794E-006
   14349.110324556425       -6.2359058361475448       0.35413989990130684        6.5449991890524000E-008   9.5489432450210041E-006
   15211.056944029811       -6.5936934919381951       0.35382009783695340        6.5215561120382376E-008   9.6141588061413868E-006
   16124.720360671601       -6.9762694446018116       0.35348159902840515        6.4981888791790448E-008   9.6791406949331769E-006
   17093.203582311897       -7.3857069391719836       0.35312330456718383        6.4749680504537449E-008   9.7438903754377139E-006
   18093.203582311897       -7.8128165931131672       0.35275391778613308        6.4522863685443063E-008   9.8084132391231571E-006
   19093.203582311897       -8.2444482305118907       0.35238513923070608        6.4307332317900512E-008   9.8727205714410582E-006
   20093.203582311897       -8.6807527165661398       0.35201695587038861        6.4101868126439769E-008   9.9368224395674986E-006
   21093.203582311897       -9.1218719713580469       0.35164935826246235        6.3905209493884231E-008   1.0000727649061382E-005
   22093.203582311897       -9.5679409963103961       0.35128233945696935        6.3716320160418242E-008   1.0064443969221801E-005
   23093.203582311897       -10.019089489224033       0.35091589417015434        6.3534350091548053E-008   1.0127978319313349E-005
   24093.203582311897       -10.475443113499072       0.35055001818482440        6.3358599146905364E-008   1.0191336918460254E-005
   25093.203582311897       -10.937124208801173       0.35018470814994895        6.3188187417317714E-008   1.0254525105877572E-005
   26093.203582311897       -11.404254008618405       0.34981996015970851        6.3023324344911954E-008   1.0317548430222483E-005
   27093.203582311897       -11.876950670767103       0.34945577159657726        6.2863180813948055E-008   1.0380411611036431E-005
   28093.203582311897       -12.355332234542050       0.34909213906785957        6.2707438496451100E-008   1.0443119049532881E-005
   29093.203582311897       -12.839516172494440       0.34872905900783019        6.2555822576653013E-008   1.0505674872109534E-005
   30093.203582311897       -13.329619748260207       0.34836652761474046        6.2408095474899186E-008   1.0568082967584433E-005
   31093.203582311897       -13.825760346905811       0.34800454079149140        6.2264052307450935E-008   1.0630347019891885E-005
   32093.203582311897       -14.328055748023083       0.34764309411478261        6.2123515649027331E-008   1.0692470535540912E-005
   33093.203582311893       -14.836624354936555       0.34728218282374446        6.1986330763166841E-008   1.0754456866304078E-005
   34093.203582311893       -15.351585390660466       0.34692180182125681        6.1852361553404545E-008   1.0816309227857483E-005
   35093.203582311893       -15.873059068031081       0.34656194568359217        6.1721487208128721E-008   1.0878030715065612E-005
   36093.203582311893       -16.401166739417551       0.34620260867547892        6.1593599447024129E-008   1.0939624314512637E-005
   37093.203582311893       -16.936031030121814       0.34584378476856625        6.1468600271841802E-008   1.1001092914784479E-005
   38093.203582311893       -17.477775958665248       0.34548546766186300        6.1346400133616080E-008   1.1062439314918094E-005
   39093.203582311893       -18.026527046475469       0.34512765080314506        6.1226916441946358E-008   1.1123666231360040E-005
   40093.203582311893       -18.582411418998444       0.34477032741060698        6.1110072353810247E-008   1.1184776303713851E-005
   41093.203582311893       -19.145558028032088       0.34441349041362079        6.0996093253650348E-008   1.1245772396967502E-005
   42093.203582311893       -19.716096643107203       0.34405713315965186        6.0884234718357730E-008   1.1306656631685860E-005
   43093.203582311893       -20.294161002872400       0.34370124751611697        6.0774842415442525E-008   1.1367431474101302E-005
   44093.203582311893       -20.879885349321434       0.34334582611873782        6.0667841339097521E-008   1.1428099315440400E-005
