 #              _____________________  _______________________             #
 #              ___  __ \__  __ \_  / / /_  /___  ____/_  ___/             #
 #              __  / / /_  /_/ /  / / /_  __/_  __/  _____ \              #
 #              _  /_/ /_  _, _// /_/ / / /_ _  /___  ____/ /              #
 #              /_____/ /_/ |_| \____/  \__/ /_____/  /____/               #
 #                                                                         #
  
 #        time                      T            heat flux [W.L-2]   in    x              directions   cumulative flux
 #-----------------------------------------------------------------------------------------------

   0.0000000000000000        25.000000000000000       -0.0000000000000000        0.0000000000000000     
   1.0000000000000000        24.999999999999869        2.1138646388863023E-011   2.1138646388863023E-011
   2.0600000000000001        24.999999974321650        1.3868546488993188E-006   1.3868757875457077E-006
   3.1836000000000002        24.999999935357618        2.8800578277810073E-006   4.2669336153267153E-006
   4.3746160000000005        24.999999892005924        4.0758909847227263E-006   8.3428246000494424E-006
   5.6370929600000004        24.999999847774042        4.9852888395207722E-006   1.3328113439570215E-005
   6.9753185376000006        24.999999803728201        5.6893114575018554E-006   1.9017424897072070E-005
   8.3938376498560014        24.999999760003348        6.2588741656100066E-006   2.5276299062682076E-005
   9.8974679088473625        24.999999716356712        6.7522127267238957E-006   3.2028511789405972E-005
   11.491315983378204        24.999999672340078        7.2268955264576234E-006   3.9255407315863596E-005
   13.180794942380897        24.999999627323366        7.7543005261304778E-006   4.7009707841994074E-005
   14.971642638923752        24.999999580443006        8.4368178931981827E-006   5.5446525735192255E-005
   16.869941197259177        24.999999530489070        9.4307069176125138E-006   6.4877232652804773E-005
   18.882137669094728        24.999999475719946        1.0978555309293390E-005   7.5855787962098156E-005
   21.015065929240414        24.999999413578841        1.3456381537935184E-005   8.9312169500033341E-005
   23.275969884994840        24.999999340271614        1.7442217661312073E-005   1.0675438716134541E-004
   25.672528078094530        24.999999250148953        2.3815296081863879E-005   1.3056968324320930E-004
   28.212879762780204        24.999999134813372        3.3898261300180427E-005   1.6446794454338972E-004
   30.905652548547017        24.999998981842321        4.9659135186175351E-005   2.1412707972956506E-004
   33.759991701459839        24.999998772979954        7.3995417970707103E-005   2.8812249770027219E-004
   36.785591203547433        24.999998481599619        1.1113001750828764E-004   3.9925251520855985E-004
   39.992726675760281        24.999998069173859        1.6715797258370945E-004   5.6641048779226930E-004
   43.392290276305900        24.999997480405099        2.5079457980581353E-004   8.1720506759808283E-004
   46.995827692884255        24.999996636564614        3.7438993388150336E-004   1.1915950014795861E-003
   50.815577354457311        24.999995426455637        5.5529237453555522E-004   1.7468873760151413E-003
   54.864511995724754        24.999993694254375        8.1766416336393074E-004   2.5645515393790718E-003
   59.156382715468240        24.999991223286063        1.1948771217973352E-003   3.7594286611764070E-003
   63.705765678396340        24.999987714559293        1.7326436433151603E-003   5.4920723044915671E-003
   68.528111619100116        24.999982758608059        2.4930691489188964E-003   7.9851414534104631E-003
   73.639798316246129        24.999975798878165        3.5598445860429771E-003   1.1544986039453441E-002
   79.058186215220900        24.999966084546404        5.0448303094086195E-003   1.6589816348862061E-002
   84.801677388134152        24.999952610285302        7.0963131708978852E-003   2.3686129519759947E-002
   90.889778031422210        24.999934040097937        9.9092432599690219E-003   3.3595372779728967E-002
   97.343164713307544        24.999908611967847        1.3737770918957918E-002   4.7333143698686887E-002
   104.18375459610600        24.999874019729326        1.8910402410874418E-002   6.6243546109561305E-002
   111.43477987187237        24.999827268303786        2.5848067127718415E-002   9.2091613237279712E-002
   119.12086666418472        24.999764498318914        3.5085332464035508E-002  0.12717694570131521     
   127.26811866403581        24.999680776189155        4.7294906404076277E-002  0.17447185210539148     
   135.90420578387796        24.999569846055760        6.3315424447019208E-002  0.23778727655241069     
   145.05845813091065        24.999423840632197        8.4182320463206547E-002  0.32196959701561723     
   154.76196561876529        24.999232949044334       0.11116132682111889       0.43313092383673613     
   165.04768355589121        24.998985040883806       0.14578389066681324       0.57891481450354942     
   175.95054456924470        24.998665249656767       0.18988315186565111       0.76879796636920050     
   187.50757724339940        24.998255516739079       0.24562936776135350        1.0144273341305541     
   199.75803187800338        24.997734105558838       0.31556249151606214        1.3299898256466163     
   212.74351379068358        24.997075094864247       0.40261975660524102        1.7326095822518572     
   226.50812461812461        24.996247865126584       0.51015559734654747        2.2427651795984049     
   241.09861209521210        24.995216595231337       0.64195105056889312        2.8847162301672982     
   256.56452882092486        24.993939789804294       0.80220972464953777        3.6869259548168358     
   272.95840055018039        24.992369860093692       0.99553756676741234        4.6824635215842481     
   290.33590458319122        24.990452782980768        1.2269040436893541        5.9093675652736017     
   308.75605885818271        24.988127863117004        1.5015829948892929        7.4109505601628944     
   328.28142238967371        24.985327622140815        1.8250723153807191        9.2360228755436129     
   348.97830773305412        24.981977836259261        2.2029927470431372        11.439015622586750     
   370.91700619703738        24.977997739172984        2.6409673393636317        14.079982961950382     
   394.17202656885962        24.973300401507888        3.1444844932491436        17.224467455199527     
   418.82234816299120        24.967793290885176        3.7187488139271063        20.943216269126633     
   444.95168905277069        24.961379008945610        4.3685251491958335        25.311741418322466     
   472.64879039593694        24.953956193583512        5.0979820595532486        30.409723477875716     
   502.00771781969320        24.945420566932345        5.9105414576564757        36.320264935532194     
   533.12818088887479        24.935666102860576        6.8087411991504387        43.129006134682633     
   566.11587174220733        24.924586282387018        7.7941169817178642        50.923123116400497     
   601.08282404673980        24.912075401884724        8.8671090377140676        59.790232154114562     
   638.14779348954426        24.898029907774784        10.026996650646522        69.817228804761086     
   677.43666109891694        24.882349675940038        11.271868605978653        81.089097410739740     
   719.08286076485194        24.864939282217353        12.598621100666906        93.687718511406644     
   763.22783241074308        24.845709162882457        14.002990992235480        107.69070950364213     
   810.02150235538772        24.824576672507732        15.479618466581359        123.17032797022348     
   859.62279249671099        24.801467013832887        17.022136453577620        140.19246442380111     
   912.20016004651370        24.776314026421346        18.623282429005776        158.81574685280688     
   967.93216964930457        24.749060826566939        20.275027621565766        179.09077447437264     
   1027.0080998282629        24.719660296191911        21.968718364874185        201.05949283924681     
   1089.6285858179588        24.688075423063850        23.695224372432630        224.75471721167943     
   1156.0063009670364        24.654279498425332        25.445089017586373        250.19980622926582     
   1226.3666790250586        24.618256181036912        27.208677206714089        277.40848343597992     
   1300.9486797665622        24.579999438712115        28.976317074752007        306.38480051073191     
   1380.0056005525560        24.539513379749643        30.738432443958910        337.12323295469082     
   1463.8059365857093        24.496811987349535        32.485663714474050        369.60889666916489     
   1552.6342927808519        24.451918770253393        34.208975555281100        403.81787222444598     
   1646.7923503477032        24.404866342590186        35.899750405305959        439.71762262975193     
   1746.5998913685655        24.355695908074843        37.549869491232641        477.26749212098457     
   1852.3958848506795        24.304456870568934        39.151767209438404        516.41925933042296     
   1964.5396379417205        24.251206143600097        40.698492034179850        557.11775136460278     
   2083.4120162182239        24.196007594782937        42.183740921759359        599.30149228636219     
   2209.4167371913172        24.138931438996408        43.601883579596091        642.90337586595831     
   2342.9817414227964        24.080053624731939        44.947975019092198        687.85135088505046     
   2484.5606459081641        24.019455218538496        46.217757817630499        734.06910870268098     
   2634.6342846626540        23.957221792215449        47.407655384754172        781.47676408743519     
   2793.7123417424132        23.893442816923496        48.514757403814265        829.99152149124950     
   2962.3350822469583        23.828211067614166        49.536798513147197        879.52832000439673     
   3141.0751871817761        23.761621989771072        50.472138475959468        930.00045848035620     
   3330.5396984126828        23.693773092282925        51.319725311893286        981.32018379224951     
   3531.3720803174438        23.624763538463974        52.079049336888147        1033.3992331291377     
   3744.2544051364907        23.554693564159177        52.750107215644334        1086.1493403447821     
   3969.9096694446803        23.483663917771445        53.333361388178730        1139.4827017329608     
   4209.1042496113614        23.411775298761242        53.829695284575962        1193.3123970175368     
   4462.6505045880431        23.339127787218423        54.240364748041429        1247.5527617655782     
   4731.4095348633255        23.265820481454263        54.566923518018271        1302.1196852835965     
   5016.2941069551252        23.191950609454032        54.811205313985063        1356.9308905975815     
   5318.2717533724335        23.117612709907188        54.975268007388429        1411.9061586049700     
   5638.3680585747798        23.042897943231651        55.061324507896465        1466.9674831128664     
   5977.6701420892668        22.967893261495718        55.071680582430638        1522.0391636952970     
   6337.3303506146231        22.892679984417036        55.008716843416217        1577.0478805387133     
   6718.5701716515005        22.817333340870675        54.874761887963324        1631.9226424266767     
   7122.6843819505912        22.741921233702342        54.672063706636749        1686.5947061333134     
   7551.0454448676273        22.666502715551076        54.402766282052148        1740.9974724153656     
   8005.1081715596856        22.591127231764375        54.068821458708982        1795.0662938740745     
   8486.4146618532668        22.515831996106066        53.672080575710510        1848.7383744497849     
   8996.5995415644629        22.440640855140920        53.214228384032147        1901.9526028338171     
   9537.3955140583312        22.365562402734948        52.696825924933947        1954.6494287587511     
   10110.639244901831        22.290590679941687        52.121170206634154        2006.7705989653853     
   10718.277599595942        22.215703938809124        51.488400797162036        2058.2589997625473     
   11362.374255571698        22.140865390203800        50.799458897865101        2109.0584586604123     
   12045.116710906001        22.066020680007384        50.055347053324745        2159.1138057137368     
   12768.823713560361        21.991098116217866        49.257136791950792        2208.3709425056877     
   13535.953136373984        21.916013737932001        48.405736216832395        2256.7766787225200     
   14349.110324556425        21.840674114593856        47.501981993390373        2304.2786607159105     
   15211.056944029811        21.764974387180693        46.547023354332516        2350.8256840702429     
   16124.720360671601        21.688800620761949        45.542303320719718        2396.3679873909628     
   17093.203582311897        21.612043475899505        44.488947991622837        2440.8569353825856     
   18093.203582311897        21.536511422083379        43.416638441153040        2484.2735738237384     
   19093.203582311897        21.464269751702837        42.361796245420258        2526.6353700691589     
   20093.203582311897        21.394963786527271        41.325932758976130        2567.9613028281351     
   21093.203582311897        21.328300926090790        40.310103800692694        2608.2714066288277     
   22093.203582311897        21.264038715943943        39.315024649466395        2647.5864312782942     
   23093.203582311897        21.201975147439562        38.341147168757885        2685.9275784470519     
   24093.203582311897        21.141940906993455        37.388717047154643        2723.3162954942068     
   25093.203582311897        21.083793157733105        36.457818266037016        2759.7741137602438     
   26093.203582311897        21.027410539841952        35.548408199962964        2795.3225219602068     
   27093.203582311897        20.972689145983317        34.660345489012087        2829.9828674492187     
   28093.203582311897        20.919539279110786        33.793412235520954        2863.7762796847396     
   29093.203582311897        20.867882838959972        32.947331710227616        2896.7236113949671     
   30093.203582311897        20.817648954677814        32.121911825618191        2928.8455232205852     
   31093.203582311897        20.768778385653459        31.316655179638698        2960.1621784002236     
   32093.203582311897        20.721217631580735        30.531148408476046        2990.6933268086996     
   33093.203582311893        20.674917816061992        29.765006113418213        3020.4583329221177     
   34093.203582311893        20.629834224125382        29.017834657576369        3049.4761675796940     
   35093.203582311893        20.585925764278088        28.289228712680394        3077.7653962923746     
   36093.203582311893        20.543154436761178        27.578775644000597        3105.3441719363750     
   37093.203582311893        20.501484868862608        26.886059925515774        3132.2302318618908     
   38093.203582311893        20.460883927575146        26.210666424296580        3158.4408982861873     
   39093.203582311893        20.421320401830421        25.552182738873459        3183.9930810250607     
   40093.203582311893        20.382764742914070        24.910200874170567        3208.9032818992314     
   41093.203582311893        20.345188852366231        24.284318453778166        3233.1876003530097     
   42093.203582311893        20.308565908323995        23.674139599940577        3256.8617399529503     
   43093.203582311893        20.272870222908285        23.079275567777778        3279.9410155207279     
   44093.203582311893        20.238077124673513        22.499345193443439        3302.4403607141712     
   45093.203582311893        20.204162861301612        21.933975199444873        3324.3743359136161     
   46093.203582311893        20.171104518661764        21.382800389182005        3345.7571363027982     
   47093.203582311893        20.138882112050680        20.845340391624742        3366.6024766944229     
   48093.203582311893        20.107472712461956        20.321381534683990        3386.9238582291068     
   49093.203582311893        20.076854688836871        19.810616128355214        3406.7344743574622     
   50093.203582311893        20.047007677756170        19.312701663320695        3426.0471760207829     
   51093.203582311893        20.017912138475115        18.827300440399739        3444.8744764611824     
   52093.203582311893        19.989549143621460        18.354087139204186        3463.2285636003867     
   53093.203582311893        19.961900298108169        17.892748008934124        3481.1213116093209     
   54093.203582311893        19.934947703052661        17.442979265639661        3498.5642908749605     
   55093.203582311893        19.908673934025984        17.004485957462766        3515.5687768324233     
   56093.203582311893        19.883062024074118        16.576981248073388        3532.1457580804968     
   57093.203582311893        19.858095448676981        16.160185948211094        3548.3059440287079     
   58093.203582311893        19.833758111802481        15.753828182283302        3564.0597722109910     
   59093.203582311893        19.810034332782955        15.357643128048290        3579.4174153390395     
   60093.203582311893        19.786908833900675        14.971372796773883        3594.3887881358132     
   61093.203582311893        19.764366728610458        14.594765836812327        3608.9835539726255     
   62093.203582311893        19.742393510338388        14.227577351583234        3623.2111313242085     
   63093.203582311893        19.720975041802202        13.869568727082848        3637.0807000512914     
   64093.203582311893        19.700097544802290        13.520507466332202        3650.6012075176236     
   65093.203582311893        19.679747590439174        13.180167029266970        3663.7813745468907     
   66093.203582311893        19.659912089717128        12.848326677330975        3676.6297012242217     
   67093.203582311893        19.640576265589317        12.524886557624258        3689.1545877818457     
   68093.203582311893        19.621729080951006        12.209511095911042        3701.3640988777570     
   69093.203582311893        19.603359220545883        11.901965395470478        3713.2660642732276     
   70093.203582311893        19.585455075976490        11.602059803054191        3724.8681240762817     
   71093.203582311893        19.568005118799821        11.309612809062827        3736.1777368853445     
   72093.203582311893        19.550998058865652        11.024443775861975        3747.2021806612065     
   73093.203582311893        19.534422887293115        10.746373439321905        3757.9485541005283     
   74093.203582311893        19.518268880790636        10.475225138465325        3768.4237792389936     
   75093.203582311893        19.502525595276339        10.210825605665603        3778.6346048446590     
   76093.203582311893        19.487182857243305        9.9530053661967877        3788.5876102108559     
   77093.203582311893        19.472230755154396        9.7015989069320874        3798.2892091177882     
   78093.203582311893        19.457659631369975        9.4564447205012847        3807.7456538382894     
   79093.203582311893        19.443460074633172        9.2173852836828196        3816.9630391219721     
   80093.203582311893        19.429622913033274        8.9842670011435803        3825.9473061231156     
