 #              _____________________  _______________________             #
 #              ___  __ \__  __ \_  / / /_  /___  ____/_  ___/             #
 #              __  / / /_  /_/ /  / / /_  __/_  __/  _____ \              #
 #              _  /_/ /_  _, _// /_/ / / /_ _  /___  ____/ /              #
 #              /_____/ /_/ |_| \____/  \__/ /_____/  /____/               #
 #                                                                         #
  
 #        time                      h  [L]                   theta [-]       Darcian flow [L.T^{-1}]   in    x              directions   cumulative flux
 #-----------------------------------------------------------------------------------------------

   0.0000000000000000      -0.30000000000000004       0.35975543982609626        4.6973552605177779E-024   4.6973552605177779E-024
   1.0000000000000000      -0.30490435470878025       0.35975110325886361        9.3111695093903699E-008   9.3111695093903699E-008
   2.0600000000000001      -0.30745529748782668       0.35974884549167302        1.0398329799125351E-007   1.9709499308515721E-007
   3.1836000000000002      -0.30936781750785869       0.35974715181897443        1.0698908360126688E-007   3.0408407668642409E-007
   4.3746160000000005      -0.31098098471170538       0.35974572261252691        1.0842129325555150E-007   4.1250536994197556E-007
   5.6370929600000004      -0.31241640120136810       0.35974445040321412        1.0927087309571242E-007   5.2177624303768802E-007
   6.9753185376000006      -0.31373464542201829       0.35974328164469610        1.0982012033498591E-007   6.3159636337267391E-007
   8.3938376498560014      -0.31497234292164927       0.35974218395302643        1.1018267125697027E-007   7.4177903462964417E-007
   9.8974679088473625      -0.31615495837656632       0.35974113480087155        1.1041383260870483E-007   8.5219286723834896E-007
   11.491315983378204      -0.31730220502260881       0.35974011673607109        1.1054418497831186E-007   9.6273705221666092E-007
   13.180794942380897      -0.31843057731176783       0.35973911514293594        1.1059252874880019E-007   1.0733295809654612E-006
   14.971642638923752      -0.31955458409409970       0.35973811715237630        1.1057159041813300E-007   1.1839011713835942E-006
   16.869941197259177      -0.32068734966292362       0.35973711111097817        1.1049072527321535E-007   1.2943918966568096E-006
   18.882137669094728      -0.32184090417424815       0.35973608632472009        1.1035724099748324E-007   1.4047491376542928E-006
   21.015065929240414      -0.32302632986206964       0.35973503293010267        1.1017705890387017E-007   1.5149261965581630E-006
   23.275969884994840      -0.32425385046633359       0.35973394181531670        1.0995505785693545E-007   1.6248812544150985E-006
   25.672528078094530      -0.32553290780319843       0.35973280455255874        1.0969527291337879E-007   1.7345765273284772E-006
   28.212879762780204      -0.32687224481132515       0.35973161332437376        1.0940103319734436E-007   1.8439775605258215E-006
   30.905652548547017      -0.32828000072892416       0.35973036083902182        1.0907507776129331E-007   1.9530526382871149E-006
   33.759991701459839      -0.32976381692389145       0.35972904023618452        1.0871966448576879E-007   2.0617723027728837E-006
   36.785591203547433      -0.33133094871196167       0.35972764498715393        1.0833667542313847E-007   2.1701089781960220E-006
   39.992726675760281      -0.33298837764495953       0.35972616879440211        1.0792771690049233E-007   2.2780366950965142E-006
   43.392290276305900      -0.33474291921617150       0.35972460549501983        1.0749421107393247E-007   2.3855309061704467E-006
   46.995827692884255      -0.33660132206096444       0.35972294897150847        1.0703747573038191E-007   2.4925683819008285E-006
   50.815577354457311      -0.33857035610578246       0.35972119307219397        1.0655878999756509E-007   2.5991271718983934E-006
   54.864511995724754      -0.34065688846648773       0.35971933154233227        1.0605944472056504E-007   2.7051866166189584E-006
   59.156382715468240      -0.34286794705373663       0.35971735796595239        1.0554077731912843E-007   2.8107273939380866E-006
   63.705765678396340      -0.34521077272519196       0.35971526571769491        1.0500419182368719E-007   2.9157315857617740E-006
   68.528111619100116      -0.34769286140965083       0.35971304792338671        1.0445116545477003E-007   3.0201827512165441E-006
   73.639798316246129      -0.35032199793845020       0.35971069742781142        1.0388324356496884E-007   3.1240659947815128E-006
   79.058186215220900      -0.35310628340418815       0.35970820676805937        1.0330202503468996E-007   3.2273680198162026E-006
   84.801677388134152      -0.35605415778784000       0.35970556815090649        1.0270914034214203E-007   3.3300771601583446E-006
   90.889778031422210      -0.35917441941460976       0.35970277343283336        1.0210622455061159E-007   3.4321833847089562E-006
   97.343164713307544      -0.36247624256961092       0.35969981410149215        1.0149488740135827E-007   3.5336782721103143E-006
   104.18375459610600      -0.36596919436648068       0.35969668125764359        1.0087668258519540E-007   3.6345549546955095E-006
   111.43477987187237      -0.36966325174078729       0.35969336559677800        1.0025307809923823E-007   3.7348080327947479E-006
   119.12086666418472      -0.37356881924815372       0.35968985738980519        9.9625429378579842E-008   3.8344334621733281E-006
   127.26811866403581      -0.37769674818738952       0.35968614646233749        9.8994956627099711E-008   3.9334284188004274E-006
   135.90420578387796      -0.38205835743850053       0.35968222217220636        9.8362727458437479E-008   4.0317911462588651E-006
   145.05845813091065      -0.38666545629842469       0.35967807338494545        9.7729645605041853E-008   4.1295207918639073E-006
   154.76196561876529      -0.39153036950745035       0.35967368844705472        9.7096446073707869E-008   4.2266172379376156E-006
   165.04768355589121      -0.39666462860235563       0.35966905636281360        9.6443232422183211E-008   4.3230604703597986E-006
   175.95054456924470      -0.40208346450485632       0.35966416273648655        9.5808809170099783E-008   4.4188692795298981E-006
   187.50757724339940      -0.40780043155046292       0.35965899461560291        9.5175528414401314E-008   4.5140448079442993E-006
   199.75803187800338      -0.41383015713493293       0.35965353800662664        9.4543316021938534E-008   4.6085881239662380E-006
   212.74351379068358      -0.42018797361319549       0.35964777820116239        9.3912171225568910E-008   4.7025002951918066E-006
   226.50812461812461      -0.42688993488242860       0.35964169975504962        9.3282016752287064E-008   4.7957823119440934E-006
   241.09861209521210      -0.43395285115264531       0.35963528645073106        9.2652714529053772E-008   4.8884350264731470E-006
   256.56452882092486      -0.44139432915458726       0.35962852125437511        9.2024086620408460E-008   4.9804591130935550E-006
   272.95840055018039      -0.44923281535067733       0.35962138626993634        9.1395935678225537E-008   5.0718550487717809E-006
   290.33590458319122      -0.45748764131129105       0.35961386269090850        9.0768063356434759E-008   5.1626231121282157E-006
   308.75605885818271      -0.46617907097581157       0.35960593075002228        9.0140285904777473E-008   5.2527633980329931E-006
   328.28142238967371      -0.47532834977369892       0.35959756966691336        8.9512446564485405E-008   5.3422758445974781E-006
   348.97830773305412      -0.48495775572385225       0.35958875759365933        8.8884424688798252E-008   5.4311602692862763E-006
   370.91700619703738      -0.49509065272672775       0.35957947155799930        8.8256141743207171E-008   5.5194164110294839E-006
   394.17202656885962      -0.50575154633625075       0.35956968740398570        8.7627564512180695E-008   5.6070439755416647E-006
   418.82234816299120      -0.51696614235455984       0.35955937972976948        8.6998705951150514E-008   5.6940426814928149E-006
   444.95168905277069      -0.52876140863461230       0.35954852182218205        8.6369624176743772E-008   5.7804123056695590E-006
   472.64879039593694      -0.54116564050443561       0.35953708558775471        8.5740420091328072E-008   5.8661527257608873E-006
   502.00771781969320      -0.55420853024478522       0.35952504147980063        8.5111234099433861E-008   5.9512639598603215E-006
   533.12818088887479      -0.56792124106193220       0.35951235842117846        8.4482242307659141E-008   6.0357462021679804E-006
   566.11587174220733      -0.58233648600282550       0.35949900372235555        8.3853652517065968E-008   6.1195998546850467E-006
   601.08282404673980      -0.59748861226467054       0.35948494299438716        8.3225700232346819E-008   6.2028255549173937E-006
   638.14779348954426      -0.61341514137971320       0.35947013870744449        8.2612495612933430E-008   6.2854380505303271E-006
   677.43666109891694      -0.63015192035442413       0.35945455468954457        8.1987746538745563E-008   6.3674257970690727E-006
   719.08286076485194      -0.64773941449546857       0.35943815027179898        8.1364441586524614E-008   6.4487902386555971E-006
   763.22783241074308      -0.66621951764845488       0.35942088324194332        8.0742965482955690E-008   6.5295332041385531E-006
   810.02150235538772      -0.68563624844095827       0.35940270918963513        8.0123640595326057E-008   6.6096568447338788E-006
   859.62279249671099      -0.70603590278208550       0.35938358135682386        7.9506794793876037E-008   6.6891636395277551E-006
   912.20016004651370      -0.72746719347923328       0.35936345050050389        7.8892761557643053E-008   6.7680564010853980E-006
   967.93216964930457      -0.74998139690949861       0.35934226474946135        7.8281877913036365E-008   6.8463382789984343E-006
   1027.0080998282629      -0.77363250991252497       0.35931996945221562        7.7674482267094621E-008   6.9240127612655289E-006
   1089.6285858179588      -0.79847741815416540       0.35929650701516114        7.7070912344301358E-008   7.0010836736098300E-006
   1156.0063009670364      -0.82457607696764246       0.35927181673017139        7.6471503243067111E-008   7.0775551768528968E-006
   1226.3666790250586      -0.85199170571463068       0.35924583459092330        7.5876585606281992E-008   7.1534317624591789E-006
   1300.9486797665622      -0.88079099679966777       0.35921849309715342        7.5286483901914073E-008   7.2287182463610929E-006
   1380.0056005525560      -0.91104434057902672       0.35918972104599983        7.4701514811833395E-008   7.3034197611729263E-006
   1463.8059365857093      -0.94282606752583287       0.35915944330951982        7.4121985731001284E-008   7.3775417469039278E-006
   1552.6342927808519      -0.97621470914653974       0.35912758059740640        7.3548193378850696E-008   7.4510899402827786E-006
   1646.7923503477032       -1.0112932792914100       0.35909404920385435        7.2980422527039429E-008   7.5240703628098181E-006
   1746.5998913685655       -1.0481486383610725       0.35905876163751754        7.2413941066631781E-008   7.5964843038764499E-006
   1852.3958848506795       -1.0868750349721219       0.35902162325574988        7.1858768672406756E-008   7.6683430725488565E-006
   1964.5396379417205       -1.1275704067915315       0.35898253583572526        7.1310389631567819E-008   7.7396534621804237E-006
   2083.4120162182239       -1.1703389737781731       0.35894139513125994        7.0769022960385984E-008   7.8104224851408098E-006
   2209.4167371913172       -1.2152912317835711       0.35889809092422398        7.0234884434424414E-008   7.8806573695752349E-006
   2342.9817414227964       -1.2625443893056727       0.35885250666106999        6.9708170774737480E-008   7.9503655403499729E-006
   2484.5606459081641       -1.3122228541748893       0.35880451905194199        6.9189060370172831E-008   8.0195546007201465E-006
   2634.6342846626540       -1.3644587618629151       0.35875399764195054        6.8677713595318174E-008   8.0882323143154639E-006
   2793.7123417424132       -1.4193925488996519       0.35870080435315632        6.8174272879879449E-008   8.1564065871953434E-006
   2962.3350822469583       -1.4771735759622147       0.35864479299505286        6.7678862744907398E-008   8.2240854499402513E-006
   3141.0751871817761       -1.5379610862665147       0.35858580846882027        6.7192883459116736E-008   8.2912783333993673E-006
   3330.5396984126828       -1.6019239882438536       0.35852368713480437        6.6713852231941977E-008   8.3579921856313091E-006
   3531.3720803174438       -1.6692428883708461       0.35845825502238382        6.6243140231250925E-008   8.4242353258625606E-006
   3744.2544051364907       -1.7401102383224232       0.35838932789860839        6.5780788586106867E-008   8.4900161144486681E-006
   3969.9096694446803       -1.8147314769281202       0.35831671040580149        6.5326829048883583E-008   8.5553429434975511E-006
   4209.1042496113614       -1.8933260723386440       0.35824019533515239        6.4881280420851940E-008   8.6202242239184026E-006
   4462.6505045880431       -1.9761286625777426       0.35815956285008937        6.4444146607719675E-008   8.6846683705261221E-006
   4731.4095348633255       -2.0633903356196956       0.35807457962633260        6.4014941998998763E-008   8.7486833125251217E-006
   5016.2941069551252       -2.1553798775312911       0.35798499808365863        6.3594610089694618E-008   8.8122779226148160E-006
   5318.2717533724335       -2.2523853935727569       0.35789055532430042        6.3182587566838592E-008   8.8754605101816548E-006
   5638.3680585747798       -2.3547159722174205       0.35779097211020061        6.2778836148778951E-008   8.9382393463304339E-006
   5977.6701420892668       -2.4627033930490541       0.35768595189050800        6.2383289412491439E-008   9.0006226357429249E-006
   6337.3303506146231       -2.5767038892568603       0.35757517988248932        6.1996118258402223E-008   9.0626187540013276E-006
   6718.5701716515005       -2.6971010356486640       0.35745832118202792        6.1616674498057302E-008   9.1242354284993844E-006
   7122.6843819505912       -2.8243071523113317       0.35733502045865762        6.1245144039662248E-008   9.1854805725390465E-006
   7551.0454448676273       -2.9587662445095018       0.35720490031999486        6.0881360235499601E-008   9.2463619327745469E-006
   8005.1081715596856       -3.1009571567436867       0.35706755965871950        6.0524964710415727E-008   9.3068868974849628E-006
   8486.4146618532668       -3.2513952372627575       0.35692257365175278        6.0176136473303773E-008   9.3670630339582667E-006
   8996.5995415644629       -3.4106372475364113       0.35676949086878490        5.9834396511660428E-008   9.4268974304699276E-006
   9537.3955140583312       -3.5792836157975256       0.35660783322499717        5.9499608681197751E-008   9.4863970391511262E-006
   10110.639244901831       -3.7579840494709296       0.35643709302471005        5.9171143357745547E-008   9.5455681825088725E-006
   10718.277599595942       -3.9474395615984172       0.35625673380743955        5.8848796143443284E-008   9.6044169786523156E-006
   11362.374255571698       -4.1484088807745403       0.35606618740912716        5.8531972965727537E-008   9.6629489516180432E-006
   12045.116710906001       -4.3617107500194372       0.35586485540027607        5.8220435853166066E-008   9.7211693874712097E-006
   12768.823713560361       -4.5882318330424869       0.35565210572049533        5.7913526529827777E-008   9.7790829140010374E-006
   13535.953136373984       -4.8289340881328968       0.35542727046497158        5.7610357970957542E-008   9.8366932719719941E-006
   14349.110324556425       -5.0848589649793094       0.35518964732840674        5.7310260292115702E-008   9.8940035322641101E-006
   15211.056944029811       -5.3571330259067249       0.35493850041124525        5.7012692131969570E-008   9.9510162243960790E-006
   16124.720360671601       -5.6469793892055371       0.35467305648408465        5.6716791878570003E-008   1.0007733016274650E-005
   17093.203582311897       -5.9557318048065726       0.35439249994803113        5.6421270868980431E-008   1.0064154287143631E-005
   18093.203582311897       -6.2762723355015728       0.35410366301334428        5.6132941518028762E-008   1.0120287228661660E-005
   19093.203582311897       -6.5986700304680239       0.35381567166771066        5.5858782107669568E-008   1.0176146010769329E-005
   20093.203582311897       -6.9230129090116748       0.35352850511143136        5.5596862476995157E-008   1.0231742873246324E-005
   21093.203582311897       -7.2493786766668471       0.35324214795801440        5.5345576957264924E-008   1.0287088450203589E-005
   22093.203582311897       -7.5778369840422490       0.35295658866015944        5.5103612627057661E-008   1.0342192062830646E-005
   23093.203582311897       -7.9084511068486245       0.35267181839878231        5.4869896570063967E-008   1.0397061959400710E-005
   24093.203582311897       -8.2412792516163904       0.35238783026015952        5.4643550344055974E-008   1.0451705509744765E-005
   25093.203582311897       -8.5763755933521626       0.35210461861386372        5.4423853112521194E-008   1.0506129362857287E-005
   26093.203582311897       -8.9137911054745835       0.35182217864349580        5.4210211911962951E-008   1.0560339574769249E-005
   27093.203582311897       -9.2535742263906879       0.35154050599515485        5.4002137631694974E-008   1.0614341712400945E-005
   28093.203582311897       -9.5957713968599059       0.35125959651677308        5.3799225564703247E-008   1.0668140937965647E-005
   29093.203582311897       -9.9404274947602822       0.35097944606751030        5.3601139626022039E-008   1.0721742077591670E-005
   30093.203582311897       -10.287583784649545       0.35070005230576456        5.3407754707365352E-008   1.0775149832299035E-005
   31093.203582311897       -10.637287612427254       0.35042140703984981        5.3218461810825854E-008   1.0828368294109860E-005
   32093.203582311897       -10.989579341974007       0.35014350688126256        5.3033317025502270E-008   1.0881401611135362E-005
   33093.203582311893       -11.344500192028963       0.34986634701547092        5.2852128594486934E-008   1.0934253739729849E-005
   34093.203582311893       -11.702091296918452       0.34958992207897821        5.2674746588288753E-008   1.0986928486318137E-005
   35093.203582311893       -12.062393653320289       0.34931422630220194        5.2501044372576814E-008   1.1039429530690715E-005
   36093.203582311893       -12.425448189189554       0.34903925354480508        5.2330912394148126E-008   1.1091760443084863E-005
   37093.203582311893       -12.791295843739235       0.34876499731468991        5.2164254439309368E-008   1.1143924697524172E-005
   38093.203582311893       -13.159977640816443       0.34849145078565374        5.2000984885816645E-008   1.1195925682409989E-005
   39093.203582311893       -13.531534753092702       0.34821860681638378        5.1841026560363000E-008   1.1247766708970353E-005
   40093.203582311893       -13.906008557580739       0.34794645797090845        5.1684309033279703E-008   1.1299451018003633E-005
   41093.203582311893       -14.283440683616012       0.34767499654006984        5.1530767250954920E-008   1.1350981785254587E-005
   42093.203582311893       -14.663873054456118       0.34740421456352871        5.1380340436500943E-008   1.1402362125691087E-005
   43093.203582311893       -15.047347923544224       0.34713410385186505        5.1232971206421215E-008   1.1453595096897509E-005
   44093.203582311893       -15.433907906300238       0.34686465600844574        5.1088604862417304E-008   1.1504683701759926E-005
