 #              _____________________  _______________________             #
 #              ___  __ \__  __ \_  / / /_  /___  ____/_  ___/             #
 #              __  / / /_  /_/ /  / / /_  __/_  __/  _____ \              #
 #              _  /_/ /_  _, _// /_/ / / /_ _  /___  ____/ /              #
 #              /_____/ /_/ |_| \____/  \__/ /_____/  /____/               #
 #                                                                         #
  
 #        time                      T            heat flux [W.L-2]   in    x              directions   cumulative flux
 #-----------------------------------------------------------------------------------------------

   0.0000000000000000        25.000000000000000       -0.0000000000000000        0.0000000000000000     
   1.0000000000000000        25.000000000000000       -0.0000000000000000        0.0000000000000000     
   2.0600000000000001        24.999999996070468        2.0390700683492450E-007   2.0390700683492450E-007
   3.1836000000000002        24.999999986047285        6.2639667675057300E-007   8.3030368358549748E-007
   4.3746160000000005        24.999999970118040        1.1676505096147583E-006   1.9979541932002559E-006
   5.6370929600000004        24.999999949369425        1.7335628754722151E-006   3.7315170686724707E-006
   6.9753185376000006        24.999999924855395        2.2685010847567334E-006   6.0000181534292046E-006
   8.3938376498560014        24.999999897318713        2.7472745145473684E-006   8.7472926679765738E-006
   9.8974679088473625        24.999999867203016        3.1621337370779627E-006   1.1909426405054536E-005
   11.491315983378204        24.999999834736705        3.5140970311431345E-006   1.5423523436197670E-005
   13.180794942380897        24.999999800010464        3.8082654540971778E-006   1.9231788890294848E-005
   14.971642638923752        24.999999763031607        4.0514438381933326E-006   2.3283232728488181E-005
   16.869941197259177        24.999999723757895        4.2509316600103341E-006   2.7534164388498515E-005
   18.882137669094728        24.999999682117057        4.4138780097568963E-006   3.1948042398255411E-005
   21.015065929240414        24.999999638017343        4.5469439768908117E-006   3.6494986375146221E-005
   23.275969884994840        24.999999591352932        4.6561293132185668E-006   4.1151115688364785E-005
   25.672528078094530        24.999999542006478        4.7466945218843606E-006   4.5897810210249143E-005
   28.212879762780204        24.999999489850222        4.8231433424916716E-006   5.0720953552740812E-005
   30.905652548547017        24.999999434746350        4.8892553650148287E-006   5.5610208917755638E-005
   33.759991701459839        24.999999376547066        4.9481379704729946E-006   6.0558346888228630E-005
   36.785591203547433        24.999999315094477        5.0022963904439124E-006   6.5560643278672547E-005
   39.992726675760281        24.999999250220409        5.0537170537268097E-006   7.0614360332399361E-005
   43.392290276305900        24.999999181746134        5.1039521409279544E-006   7.5718312473327319E-005
   46.995827692884255        24.999999109482086        5.1541968915103056E-006   8.0872509364837629E-005
   50.815577354457311        24.999999033227482        5.2053663068818381E-006   8.6077875671719471E-005
   54.864511995724754        24.999998952769833        5.2581700415998924E-006   9.1336045713319368E-005
   59.156382715468240        24.999998867884383        5.3131752153490146E-006   9.6649220928668388E-005
   63.705765678396340        24.999998778333378        5.3708837199906106E-006   1.0202010464865900E-004
   68.528111619100116        24.999998683865130        5.4318125464192184E-006   1.0745191719507823E-004
   73.639798316246129        24.999998584212747        5.4966133689049406E-006   1.1294853056398317E-004
   79.058186215220900        24.999998479092312        5.5662627929109425E-006   1.1851479335689412E-004
   84.801677388134152        24.999998368200142        5.6423770189439842E-006   1.2415717037583810E-004
   90.889778031422210        24.999998251208392        5.7277711107417366E-006   1.2988494148657984E-004
   97.343164713307544        24.999998127757866        5.8274398284652256E-006   1.3571238131504507E-004
   104.18375459610600        24.999997997445945        5.9502644234044005E-006   1.4166264573844947E-004
   111.43477987187237        24.999997859806147        6.1119696326272728E-006   1.4777461537107675E-004
   119.12086666418472        24.999997714273405        6.3402114491850566E-006   1.5411482682026182E-004
   127.26811866403581        24.999997560125347        6.6832035017227949E-006   1.6079803032198462E-004
   135.90420578387796        24.999997396383495        7.2241934034877827E-006   1.6802222372547240E-004
   145.05845813091065        24.999997221648517        8.1054750467046620E-006   1.7612769877217707E-004
   154.76196561876529        24.999997033827938        9.5677759404111300E-006   1.8569547471258821E-004
   165.04768355589121        24.999996829690893        1.2014039150187717E-005   1.9770951386277594E-004
   175.95054456924470        24.999996604168352        1.6111251781580891E-005   2.1382076564435682E-004
   187.50757724339940        24.999996349145025        2.2952234743911483E-005   2.3677300038826829E-004
   199.75803187800338        24.999996051693863        3.4305970828540894E-005   2.7107897121680919E-004
   212.74351379068358        24.999995691223312        5.3004004065826346E-005   3.2408297528263553E-004
   226.50812461812461        24.999995235107217        8.3525659526628647E-005   4.0760863480926419E-004
   241.09861209521210        24.999994632042057        1.3287235766767924E-004   5.4048099247694338E-004
   256.56452882092486        24.999993802085491        2.1185424643022069E-004   7.5233523890716404E-004
   272.95840055018039        24.999992621925962        3.3695419439538882E-004   1.0892894333025529E-003
   290.33590458319122        24.999990903411856        5.3298469637752489E-004   1.6222741296800778E-003
   308.75605885818271        24.999988362717808        8.3681140189639715E-004   2.4590855315764749E-003
   328.28142238967371        24.999984576738484        1.3024802497696431E-003   3.7615657813461177E-003
   348.97830773305412        24.999978922385246        2.0081483670253402E-003   5.7697141483714579E-003
   370.91700619703738        24.999970493447893        3.0652741056869078E-003   8.8349882540583666E-003
   394.17202656885962        24.999957988628683        4.6305574995031363E-003   1.3465545753561504E-002
   418.82234816299120        24.999939563348651        6.9211249720169061E-003   2.0386670725578409E-002
   444.95168905277069        24.999912637095079        1.0233404248936031E-002   3.0620074974514438E-002
   472.64879039593694        24.999873647585570        1.4966019991433639E-002   4.5586094965948079E-002
   502.00771781969320        24.999817743059779        2.1646841716709254E-002   6.7232936682657340E-002
   533.12818088887479        24.999738404778583        3.0964022332007315E-002   9.8196959014664659E-002
   566.11587174220733        24.999626993503377        4.3800476460305007E-002  0.14199743547496968     
   601.08282404673980        24.999472216497665        6.1270773001140748E-002  0.20326820847611043     
   638.14779348954426        24.999259515554815        8.4758877522403894E-002  0.28802708599851434     
   677.43666109891694        24.998970381346005       0.11595465439700793       0.40398174039552226     
   719.08286076485194        24.998581605979368       0.15688647149197252       0.56086821188749481     
   763.22783241074308        24.998064491359724       0.20994691833404724       0.77081513022154202     
   810.02150235538772        24.997384038492704       0.27790837543424352        1.0487235056557855     
   859.62279249671099        24.996498148814897       0.36392521172984937        1.4126487173856348     
   912.20016004651370        24.995356874060892       0.47151969029471236        1.8841684076803471     
   967.93216964930457        24.993901754830929       0.60454927594168539        2.4887176836220326     
   1027.0080998282629        24.992065289496722       0.76715394179600982        3.2558716254180426     
   1089.6285858179588        24.989770573998264       0.96368321346751784        4.2195548388855606     
   1156.0063009670364        24.986931149284032        1.1986039836263263        5.4181588225118871     
   1226.3666790250586        24.983451086719313        1.4763914670476539        6.8945502895595414     
   1300.9486797665622        24.979225333067770        1.8014069253058180        8.6959572148653592     
   1380.0056005525560        24.974140326189357        2.1777668533509225        10.873724068216282     
   1463.8059365857093        24.968074881099316        2.6092090870297091        13.482933155245991     
   1552.6342927808519        24.960901334283246        3.0989616911314117        16.581894846377402     
   1646.7923503477032        24.952486922945887        3.6496204882122609        20.231515334589663     
   1746.5998913685655        24.942695363713565        4.2630408789471694        24.494556213536832     
   1852.3958848506795        24.931388598956588        4.9402478484526879        29.434804061989521     
   1964.5396379417205        24.918428646214380        5.6813693215832775        35.116173383572800     
   2083.4120162182239        24.903679515015291        6.4855940191641119        41.601767402736911     
   2209.4167371913172        24.887009131338488        7.3511555991323201        48.952923001869230     
   2342.9817414227964        24.868291219371471        8.2753428131619273        57.228265815031158     
   2484.5606459081641        24.847407091313755        9.2545342920718738        66.482800107103031     
   2634.6342846626540        24.824247299892228        10.284255485281326        76.767055592384352     
   2793.7123417424132        24.798713113005512        11.359254398387318        88.126309990771674     
   2962.3350822469583        24.770717775059317        12.473592133299352        100.59990212407102     
   3141.0751871817761        24.740187528655767        13.620743620761916        114.22064574483294     
   3330.5396984126828        24.707062350145016        14.793705484247598        129.01435122908055     
   3531.3720803174438        24.671296417300283        15.985103923225862        144.99945515230641     
   3744.2544051364907        24.632858259056455        17.187301067043549        162.18675621934995     
   3969.9096694446803        24.591730591660578        18.392495371409922        180.57925159075987     
   4209.1042496113614        24.547909830963562        19.592813801487896        200.17206539224776     
   4462.6505045880431        24.501405279600306        20.780394217786142        220.95245961003391     
   4731.4095348633255        24.452237994082118        21.947457168016893        242.89991677805079     
   5016.2941069551252        24.400439370699544        23.086366501334027        265.98628327938479     
   5318.2717533724335        24.346049417761343        24.189683238984202        290.17596651836902     
   5638.3680585747798        24.289114801465153        25.250211495214941        315.42617801358398     
   5977.6701420892668        24.229686695830338        26.261039688731504        341.68721770231548     
   6337.3303506146231        24.167818497327431        27.215580208915686        368.90279791123118     
   6718.5701716515005        24.103563466723152        28.107608964243742        397.01040687547493     
   7122.6843819505912        24.036972452574478        28.931304025029913        425.94171090050486     
   7551.0454448676273        23.968091710501284        29.681289085256470        455.62299998576134     
   8005.1081715596856        23.896960956207124        30.352678835289073        485.97567882105039     
   8486.4146618532668        23.823611706714814        30.941130708113253        516.91680952916363     
   8996.5995415644629        23.748065922177389        31.442901708147669        548.35971123731133     
   9537.3955140583312        23.670335075426596        31.854906062522165        580.21461729983355     
   10110.639244901831        23.590419759520245        32.174762743752339        612.38938004358590     
   10718.277599595942        23.508309904898116        32.400834401735217        644.79021444532111     
   11362.374255571698        23.423985586104408        32.532253810301313        677.32246825562243     
   12045.116710906001        23.337418231157692        32.568952030857695        709.89142028648007     
   12768.823713560361        23.248572126470719        32.511679556215761        742.40309984269584     
   13535.953136373984        23.157406690731229        32.361983860284596        774.76508370298041     
   14349.110324556425        23.063879454906186        32.122158331072946        806.88724203405332     
   15211.056944029811        22.967948957777491        31.795210278696548        838.68245231274989     
   16124.720360671601        22.869577552046202        31.384823304711350        870.06727561746129     
   17093.203582311897        22.768735552865365        30.895224148425807        900.96249976588706     
   18093.203582311897        22.667997417288138        30.346546981418403        931.30904674730550     
   19093.203582311897        22.570412573813371        29.766748438968566        961.07579518627404     
   20093.203582311897        22.475782789617426        29.165413222419236        990.24120840869330     
   21093.203582311897        22.383937274325948        28.550162496426321        1018.7913709051196     
   22093.203582311897        22.294728030844407        27.927040564349543        1046.7184114694692     
   23093.203582311897        22.208025779540002        27.300826080374609        1074.0192375498439     
   24093.203582311897        22.123716621912337        26.675282046567521        1100.6945195964113     
   25093.203582311897        22.041699323427451        26.053356524087096        1126.7478761204984     
   26093.203582311897        21.961883106659450        25.437343848205295        1152.1852199687037     
   27093.203582311897        21.884185861277956        24.829014194608959        1177.0142341633127     
   28093.203582311897        21.808532692839457        24.229717755171706        1201.2439519184845     
   29093.203582311897        21.734854746150631        23.640468520505365        1224.8844204389900     
   30093.203582311897        21.663087963208660        23.062028283162071        1247.9464487221521     
   31093.203582311897        21.593172785473065        22.494926214945799        1270.4413749370979     
   32093.203582311897        21.525053530869556        21.939511660268014        1292.3808865973658     
   33093.203582311893        21.458677725136212        21.396000341571071        1313.7768869389370     
   34093.203582311893        21.393995611143151        20.864504541884177        1334.6413914808211     
   35093.203582311893        21.330959795216060        20.345054292777167        1354.9864457735982     
   36093.203582311893        21.269524976189537        19.837614035589741        1374.8240598091879     
   37093.203582311893        21.209647726240000        19.342096342464625        1394.1661561516526     
   38093.203582311893        21.151286308765236        18.858373241018622        1413.0245293926712     
   39093.203582311893        21.094400525470334        18.386285473560150        1431.4108148662312     
   40093.203582311893        21.038951587418296        17.925649999838654        1449.3364648660699     
   41093.203582311893        20.984902005931630        17.476266037765548        1466.8127309038355     
   42093.203582311893        20.932215499920794        17.037919905537628        1483.8506508093731     
   43093.203582311893        20.880856916765374        16.610388890066744        1500.4610396994399     
   44093.203582311893        20.830792164347407        16.193444328398336        1516.6544840278382     
   45093.203582311893        20.781988152252012        15.786854054745289        1532.4413380825836     
   46093.203582311893        20.734412740501764        15.390384336978206        1547.8317224195619     
   47093.203582311893        20.688034971517915        15.003785491936577        1562.8355079114983     
   48093.203582311893        20.642824568394836        14.626826206211151        1577.4623341177096     
   49093.203582311893        20.598751899247901        14.259285614587812        1591.7216197322973     
   50093.203582311893        20.555788089290328        13.900943514583433        1605.6225632468806     
   51093.203582311893        20.513905060266211        13.551578976595581        1619.1741422234763     
   52093.203582311893        20.473075514742263        13.210972119638798        1632.3851143431152     
   53093.203582311893        20.433272902218341        12.878905866465887        1645.2640202095811     
   54093.203582311893        20.394471384870101        12.555167009383890        1657.8191872189650     
   55093.203582311893        20.356645807650978        12.239546745316108        1670.0587339642811     
   56093.203582311893        20.319771672735115        11.931840911546335        1681.9905748758274     
   57093.203582311893        20.283825117253357        11.631850069376551        1693.6224249452039     
   58093.203582311893        20.248782893363110        11.339379511645642        1704.9618044568494     
   59093.203582311893        20.214622349973883        11.054239230399954        1716.0160436872493     
   60093.203582311893        20.181321415687567        10.776243861934018        1726.7922875491834     
   61093.203582311893        20.148858582670687        10.505212617726363        1737.2975001669097     
   62093.203582311893        20.117212891276566        10.240969206073123        1747.5384693729827     
   63093.203582311893        20.086363915297063        9.9833417471759045        1757.5218111201586     
   64093.203582311893        20.056291747762145        9.7321626838177178        1767.2539738039764     
   65093.203582311893        20.026976987228924        9.4872686890058144        1776.7412424929821     
   66093.203582311893        19.998400724517534        9.2485005717802977        1785.9897430647625     
   67093.203582311893        19.970544269499818        9.0157180817816780        1795.0054611465441     
   68093.203582311893        19.943389574323703        8.7887687784817032        1803.7942299250258     
   69093.203582311893        19.916919216562277        8.5674963141469291        1812.3617262391726     
   70093.203582311893        19.891116254731998        8.3517500807178919        1820.7134763198906     
   71093.203582311893        19.865964152793122        8.1413869273066126        1828.8548632471973     
   72093.203582311893        19.841446758594294        7.9362698042708066        1836.7911330514680     
   73093.203582311893        19.817548301455012        7.7362663249959516        1844.5273993764640     
   74093.203582311893        19.794253392025013        7.5412478880960814        1852.0686472645600     
   75093.203582311893        19.771547019774051        7.3510892299050150        1859.4197364944650     
   76093.203582311893        19.749414547920431        7.1656682056877523        1866.5854047001528     
   77093.203582311893        19.727841706600035        6.9848656736237240        1873.5702703737766     
   78093.203582311893        19.706814585026681        6.8085654195948857        1880.3788357933715     
   79093.203582311893        19.686319623157519        6.6366540959537028        1887.0154898893252     
   80093.203582311893        19.666343603177292        6.4690211637832400        1893.4845110531085     
