 #              _____________________  _______________________             #
 #              ___  __ \__  __ \_  / / /_  /___  ____/_  ___/             #
 #              __  / / /_  /_/ /  / / /_  __/_  __/  _____ \              #
 #              _  /_/ /_  _, _// /_/ / / /_ _  /___  ____/ /              #
 #              /_____/ /_/ |_| \____/  \__/ /_____/  /____/               #
 #                                                                         #
  
 #        time                      h  [L]                   theta [-]       Darcian flow [L.T^{-1}]   in    x              directions   cumulative flux
 #-----------------------------------------------------------------------------------------------

   0.0000000000000000      -0.15000000000000002       0.35988477783539713        4.8218303352261363E-022   4.8218303352261363E-022
   1.0000000000000000      -0.15002021029165602       0.35988476095765071        3.8347002361400199E-010   3.8347002361448419E-010
   2.0600000000000001      -0.15009473695758488       0.35988469871828882        1.5349191731210841E-009   1.9183891967355683E-009
   3.1836000000000002      -0.15025468656282773       0.35988456513097689        3.4990039567187440E-009   5.4173931534543123E-009
   4.3746160000000005      -0.15052002521518598       0.35988434349800530        6.0316736985362957E-009   1.1449066851990608E-008
   5.6370929600000004      -0.15090019302453730       0.35988402589274909        8.7992347569311212E-009   2.0248301608921729E-008
   6.9753185376000006      -0.15139764134261943       0.35988361020547155        1.1518849099511021E-008   3.1767150708432752E-008
   8.3938376498560014      -0.15201097744181521       0.35988309751940034        1.4006294219583601E-008   4.5773444928016356E-008
   9.8974679088473625      -0.15273698878413211       0.35988249042316045        1.6168475183119542E-008   6.1941920111135898E-008
   11.491315983378204      -0.15357180049452887       0.35988179204683918        1.7977478630386480E-008   7.9919398741522371E-008
   13.180794942380897      -0.15451152461648715       0.35988100552184465        1.9445156519922154E-008   9.9364555261444518E-008
   14.971642638923752      -0.15555263700202898       0.35988013366745464        2.0604282522942509E-008   1.1996883778438702E-007
   16.869941197259177      -0.15669220558864080       0.35987917880068265        2.1496381748165526E-008   1.4146521953255254E-007
   18.882137669094728      -0.15792802984873244       0.35987814261957501        2.2164552807353497E-008   1.6362977233990605E-007
   21.015065929240414      -0.15925872069085761       0.35987702613557326        2.2649558127647427E-008   1.8627933046755348E-007
   23.275969884994840      -0.16068373677555767       0.35987582964172393        2.2987904828743785E-008   2.0926723529629726E-007
   25.672528078094530      -0.16220338766369316       0.35987455270815721        2.3211089657789892E-008   2.3247832495408715E-007
   28.212879762780204      -0.16381881194457623       0.35987319419814634        2.3345508945585947E-008   2.5582383389967308E-007
   30.905652548547017      -0.16553193748197570       0.35987175229888752        2.3412740600566324E-008   2.7923657450023941E-007
   33.759991701459839      -0.16734543027349788       0.35987022456165413        2.3430024987100161E-008   3.0266659948733955E-007
   36.785591203547433      -0.16926263775618050       0.35986860794650449        2.3410838725706348E-008   3.2607743821304588E-007
   39.992726675760281      -0.17128753157232121       0.35986689886738465        2.3365493569400061E-008   3.4944293178244592E-007
   43.392290276305900      -0.17342465383216996       0.35986509323425603        2.3301715703681939E-008   3.7274464748612784E-007
   46.995827692884255      -0.17567906984046738       0.35986318648975807        2.3225176604540531E-008   3.9596982409066838E-007
   50.815577354457311      -0.17805632918477182       0.35986117363879105        2.3139958471269704E-008   4.1910978256193807E-007
   54.864511995724754      -0.18056243610536132       0.35985904927021833        2.3048946599240866E-008   4.4215872916117891E-007
   59.156382715468240      -0.18320382924873788       0.35985680757056376        2.2954148286068602E-008   4.6511287744724750E-007
   63.705765678396340      -0.18598737028937048       0.35985444233009733        2.2856943084079914E-008   4.8796982053132739E-007
   68.528111619100116      -0.18892034049661796       0.35985194694204820        2.2758272536736603E-008   5.1072809306806395E-007
   73.639798316246129      -0.19201044410934581       0.35984931439586232        2.2658779192185771E-008   5.3338687226024968E-007
   79.058186215220900      -0.19526581732559548       0.35984653726547988        2.2558905001230282E-008   5.5594577726148000E-007
   84.801677388134152      -0.19869504177608904       0.35984360769355361        2.2458958562105526E-008   5.7840473582358555E-007
   90.889778031422210      -0.20230716148549394       0.35984051737242656        2.2359159447775239E-008   6.0076389527136080E-007
   97.343164713307544      -0.20611170249678351       0.35983725752254275        2.2259666365214996E-008   6.2302356163657578E-007
   104.18375459610600      -0.21011869451337098       0.35983381886881954        2.2160594395849355E-008   6.4518415603242516E-007
   111.43477987187237      -0.21433869408225814       0.35983019161537116        2.2062025207796605E-008   6.6724618124022179E-007
   119.12086666418472      -0.21878280898942865       0.35982636541884905        2.1964012996994265E-008   6.8921019423721605E-007
   127.26811866403581      -0.22346272366294126       0.35982232936056280        2.1866588025106527E-008   7.1107678226232262E-007
   135.90420578387796      -0.22839072548082973       0.35981807191746074        2.1769758962405185E-008   7.3284654122472785E-007
   145.05845813091065      -0.23357973196328163       0.35981358093198046        2.1673514775552571E-008   7.5452005600028042E-007
   154.76196561876529      -0.23904331889546299       0.35980884358072324        2.1577826580304652E-008   7.7609788258058509E-007
   165.04768355589121      -0.24479529941851177       0.35980384673321136        2.1481526657382549E-008   7.9757940923796761E-007
   175.95054456924470      -0.25085093234783146       0.35979857589541381        2.1386254646634801E-008   8.1896566388460243E-007
   187.50757724339940      -0.25722598913327327       0.35979301601023400        2.1291612986025805E-008   8.4025727687062827E-007
   199.75803187800338      -0.26393699480655469       0.35978715124053090        2.1197377686401337E-008   8.6145465455702959E-007
   212.74351379068358      -0.27100127736290008       0.35978096491756517        2.1103401067079202E-008   8.8255805562410883E-007
   226.50812461812461      -0.27843701279913596       0.35977443949274623        2.1009571398855440E-008   9.0356762702296423E-007
   241.09861209521210      -0.28626326791259499       0.35976755649089481        2.0915792878858549E-008   9.2448341990182274E-007
   256.56452882092486      -0.29450004351948650       0.35976029646272645        2.0821977980551338E-008   9.4530539788237409E-007
   272.95840055018039      -0.30316831956369394       0.35975263893527576        2.0728045569825510E-008   9.6603344345219957E-007
   290.33590458319122      -0.31229010286714698       0.35974456235960206        2.0633921165447540E-008   9.8666736461764711E-007
   308.75605885818271      -0.32188847794245196       0.35973604405540133        2.0539537764864013E-008   1.0072069023825111E-006
   328.28142238967371      -0.33198766114689887       0.35972706015227440        2.0444836625857391E-008   1.0276517390083686E-006
   348.97830773305412      -0.34261305839883299       0.35971758552745109        2.0349767801122880E-008   1.0480015068094915E-006
   370.91700619703738      -0.35379132665684321       0.35970759373979183        2.0254290385087360E-008   1.0682557971945788E-006
   394.17202656885962      -0.36555043936088616       0.35969705695989007        2.0158372498145850E-008   1.0884141696927246E-006
   418.82234816299120      -0.37791975604503991       0.35968594589609337        2.0061991057954158E-008   1.1084761607506787E-006
   444.95168905277069      -0.39093009635119674       0.35967422971624891        1.9965131395389443E-008   1.1284412921460682E-006
   472.64879039593694      -0.40461381869896007       0.35966187596495736        1.9867786771263049E-008   1.1483090789173314E-006
   502.00771781969320      -0.41900490389834893       0.35964885047609990        1.9769957843205424E-008   1.1680790367605368E-006
   533.12818088887479      -0.43413904402567804       0.35963511728037717        1.9671652123534644E-008   1.1877506888840713E-006
   566.11587174220733      -0.45005373691786499       0.35962063850757475        1.9572883459244931E-008   1.2073235723433162E-006
   601.08282404673980      -0.46678838667346079       0.35960537428324874        1.9473671555349327E-008   1.2267972438986656E-006
   638.14779348954426      -0.48438496361380240       0.35958928211310209        1.9374396454321013E-008   1.2461716403529866E-006
   677.43666109891694      -0.50288663734552330       0.35957231812034557        1.9274534442471158E-008   1.2654461747954577E-006
   719.08286076485194      -0.52233913426163636       0.35955443579669100        1.9174230478752234E-008   1.2846204052742099E-006
   763.22783241074308      -0.54279061660159889       0.35953558610033243        1.9073593691834570E-008   1.3036939989660444E-006
   810.02150235538772      -0.56429177588640989       0.35951571735958182        1.8972685795908695E-008   1.3226666847619531E-006
   859.62279249671099      -0.58689596739407024       0.35949477513966588        1.8871558529882676E-008   1.3415382432918358E-006
   912.20016004651370      -0.61065936296532197       0.35947270209344551        1.8770265120712376E-008   1.3603085084125481E-006
   967.93216964930457      -0.63564111511521659       0.35944943780266314        1.8668862623396250E-008   1.3789773710359443E-006
   1027.0080998282629      -0.66190353124303147       0.35942491861107162        1.8567412346676522E-008   1.3975447833826208E-006
   1089.6285858179588      -0.68951225790043924       0.35939907744977212        1.8465979914982904E-008   1.4160107632976036E-006
   1156.0063009670364      -0.71853647524128983       0.35937184365499680        1.8364635209279500E-008   1.4343753985068830E-006
   1226.3666790250586      -0.74904910176314377       0.35934314277864338        1.8263452175558267E-008   1.4526388506824413E-006
   1300.9486797665622      -0.78112700942886737       0.35931289639195707        1.8162508436825685E-008   1.4708013591192670E-006
   1380.0056005525560      -0.81485124927021124       0.35928102188281746        1.8061884627356024E-008   1.4888632437466231E-006
   1463.8059365857093      -0.85030728764412955       0.35924743224710470        1.7961663363021758E-008   1.5068249071096450E-006
   1552.6342927808519      -0.88758525345375516       0.35921203587457307        1.7861927762625477E-008   1.5246868348722704E-006
   1646.7923503477032      -0.92678019686829705       0.35917473632954344        1.7762759445036620E-008   1.5424495943173070E-006
   1746.5998913685655      -0.96799187795222930       0.35913543258711084        1.7664091052384479E-008   1.5601136853696914E-006
   1852.3958848506795       -1.0113263505724339       0.35909401756532189        1.7566232610163027E-008   1.5776799179798545E-006
   1964.5396379417205       -1.0568951814756780       0.35905037891783642        1.7469182482825629E-008   1.5951491004626801E-006
   2083.4120162182239       -1.1048159608701755       0.35900439860914218        1.7372952968782949E-008   1.6125220534314630E-006
   2209.4167371913172       -1.1552127015178497       0.35895595260636387        1.7277563524765029E-008   1.6297996169562281E-006
   2342.9817414227964       -1.2082162076663709       0.35890491061262991        1.7183012358516025E-008   1.6469826293147442E-006
   2484.5606459081641       -1.2639644641500394       0.35885113579578015        1.7089268024367713E-008   1.6640718973391119E-006
   2634.6342846626540       -1.3226030564235898       0.35879448450394569        1.6996264496177766E-008   1.6810681618352896E-006
   2793.7123417424132       -1.3842856267731529       0.35873480596498225        1.6903897237671811E-008   1.6979720590729614E-006
   2962.3350822469583       -1.4491743716021663       0.35867194196729507        1.6812020357575331E-008   1.7147840794305367E-006
   3141.0751871817761       -1.5174409483332449       0.35860572616694536        1.6720530644175737E-008   1.7315046100747124E-006
   3330.5396984126828       -1.5892660832705927       0.35853598468134934        1.6629050494660457E-008   1.7481336605693728E-006
   3531.3720803174438       -1.6648410671201150       0.35846253488331214        1.6537360425480005E-008   1.7646710209948528E-006
   3744.2544051364907       -1.7443683012258879       0.35838518514765411        1.6445169242633379E-008   1.7811161902374863E-006
   3969.9096694446803       -1.8280620311577414       0.35830373445439634        1.6352146656925875E-008   1.7974683368944122E-006
   4209.1042496113614       -1.9161492002635010       0.35821797191804544        1.6257944954519143E-008   1.8137262818489314E-006
   4462.6505045880431       -2.0088703884621459       0.35812767628196157        1.6162212341693575E-008   1.8298884941906250E-006
   4731.4095348633255       -2.1064804326181528       0.35803261577700818        1.6064519976238123E-008   1.8459530141668632E-006
   5016.2941069551252       -2.2092506718514562       0.35793254645868355        1.5964702414485291E-008   1.8619177165813484E-006
   5318.2717533724335       -2.3174692000504362       0.35782721255429267        1.5862422532362522E-008   1.8777801391137109E-006
   5638.3680585747798       -2.4314424528983953       0.35771634558849913        1.5757450014757975E-008   1.8935375891284689E-006
   5977.6701420892668       -2.5514967566370506       0.35759966363443690        1.5649631174288639E-008   1.9091872203027576E-006
   6337.3303506146231       -2.6779804793763686       0.35747687007997930        1.5538987183550372E-008   1.9247262074863081E-006
   6718.5701716515005       -2.8112645072959843       0.35734765413387609        1.5425361879267521E-008   1.9401515693655757E-006
   7122.6843819505912       -2.9517454790828874       0.35721168878038423        1.5308924006926421E-008   1.9554604933725021E-006
   7551.0454448676273       -3.0998477299982898       0.35706863013529710        1.5189866156776123E-008   1.9706503595292783E-006
   8005.1081715596856       -3.2560251041365453       0.35691811709091459        1.5068347071655441E-008   1.9857187066009337E-006
   8486.4146618532668       -3.4207653670791900       0.35675976864180686        1.4944886619761573E-008   2.0006635932206954E-006
   8996.5995415644629       -3.5945917300177390       0.35659318421459418        1.4819797532256591E-008   2.0154833907529518E-006
   9537.3955140583312       -3.7780672732905538       0.35641794145044248        1.4693613562633641E-008   2.0301770043155855E-006
   10110.639244901831       -3.9717968087590521       0.35623359671724142        1.4566604004462426E-008   2.0447436083200479E-006
   10718.277599595942       -4.1764326376848953       0.35603968220991278        1.4439306338150994E-008   2.0591829146581990E-006
   11362.374255571698       -4.3926776164690082       0.35583570597887565        1.4312039582322845E-008   2.0734949542405220E-006
   12045.116710906001       -4.6212925668199647       0.35562114825680424        1.4185429553253501E-008   2.0876803837937754E-006
   12768.823713560361       -4.8631004311553498       0.35539546134664263        1.4059870978802843E-008   2.1017402547725782E-006
   13535.953136373984       -5.1189900730153450       0.35515807032233326        1.3935454281959748E-008   2.1156757090545377E-006
   14349.110324556425       -5.3899241441808199       0.35490837050121582        1.3812373151439376E-008   2.1294880822059771E-006
   15211.056944029811       -5.6769491605981397       0.35464572360499519        1.3691031073501789E-008   2.1431791132794790E-006
   16124.720360671601       -5.9812023549670394       0.35436945770291128        1.3571602313060109E-008   2.1567507155925392E-006
   17093.203582311897       -6.3039150001320552       0.35407887112507391        1.3453689096250696E-008   2.1702044046887901E-006
   18093.203582311897       -6.6375398928337157       0.35378112135794176        1.3340267761565685E-008   2.1835446724503558E-006
   19093.203582311897       -6.9717437349404365       0.35348558237897032        1.3234015672148119E-008   2.1967786881225039E-006
   20093.203582311897       -7.3066819474947922       0.35319213870599986        1.3134299313427897E-008   2.2099129874359319E-006
   21093.203582311897       -7.6424956707632203       0.35290068578232109        1.3040400816541066E-008   2.2229533882524730E-006
   22093.203582311897       -7.9793133989362213       0.35261112894578234        1.2951690174476882E-008   2.2359050784269500E-006
   23093.203582311897       -8.3172528537857282       0.35232338208805158        1.2867623461704807E-008   2.2487727018886548E-006
   24093.203582311897       -8.6564225730166164       0.35203736650057205        1.2787732346812330E-008   2.2615604342354670E-006
   25093.203582311897       -8.9969232520178313       0.35175300989043179        1.2711613846780893E-008   2.2742720480822480E-006
   26093.203582311897       -9.3388488786362807       0.35147024554319978        1.2638921032424707E-008   2.2869109691146725E-006
   27093.203582311897       -9.6822876943696006       0.35118901161169969        1.2569354799757562E-008   2.2994803239144301E-006
   28093.203582311897       -10.027323009796124       0.35090925051217531        1.2502656695949524E-008   2.3119829806103797E-006
   29093.203582311897       -10.374033897417824       0.35063090841171518        1.2438602731961905E-008   2.3244215833423417E-006
   30093.203582311897       -10.722497604442387       0.35035393335109555        1.2377092480546461E-008   2.3367986758228880E-006
   31093.203582311897       -11.072784358600549       0.35007827940737563        1.2317757262262937E-008   2.3491164330851508E-006
   32093.203582311897       -11.424963641333068       0.34980390169647635        1.2260547998251874E-008   2.3613769810834029E-006
   33093.203582311893       -11.779102741142376       0.34953075757461732        1.2205339856462463E-008   2.3735823209398655E-006
   34093.203582311893       -12.135266889149868       0.34925880655148961        1.2152015289760401E-008   2.3857343362296259E-006
   35093.203582311893       -12.493519536724307       0.34898801008778502        1.2100469646436090E-008   2.3978348058760621E-006
   36093.203582311893       -12.853922595710356       0.34871833142063174        1.2050609338829783E-008   2.4098854152148920E-006
   37093.203582311893       -13.216536643302152       0.34844973541523339        1.2002350083593630E-008   2.4218877652984856E-006
   38093.203582311893       -13.581421098586908       0.34818218843720766        1.1955615495608853E-008   2.4338433807940944E-006
   39093.203582311893       -13.948634375676914       0.34791565824182780        1.1910335943590507E-008   2.4457537167376850E-006
   40093.203582311893       -14.318234017148120       0.34765011387733225        1.1866447604117750E-008   2.4576201643418026E-006
   41093.203582311893       -14.690276810798737       0.34738552560002961        1.1823891672651879E-008   2.4694440560144544E-006
   42093.203582311893       -15.064818892223458       0.34712186479933760        1.1782613703255240E-008   2.4812266697177098E-006
   43093.203582311893       -15.441915835321096       0.34685910393119612        1.1742563054723284E-008   2.4929692327724329E-006
   44093.203582311893       -15.821622732492566       0.34659721645857877        1.1703692424016869E-008   2.5046729251964497E-006
