 #              _____________________  _______________________             #
 #              ___  __ \__  __ \_  / / /_  /___  ____/_  ___/             #
 #              __  / / /_  /_/ /  / / /_  __/_  __/  _____ \              #
 #              _  /_/ /_  _, _// /_/ / / /_ _  /___  ____/ /              #
 #              /_____/ /_/ |_| \____/  \__/ /_____/  /____/               #
 #                                                                         #
  
 #        time                      h  [L]                   theta [-]       Darcian flow [L.T^{-1}]   in    x              directions   cumulative flux
 #-----------------------------------------------------------------------------------------------

   0.0000000000000000      -0.25000000000000000       0.35979931717114128        2.5955439938456022E-024   2.5955439938456022E-024
   1.0000000000000000      -0.25072611904267605       0.35979868463709758        1.3847649889762661E-008   1.3847649889762664E-008
   2.0600000000000001      -0.25185549842210836       0.35979770052495108        2.9159898702191026E-008   4.3007548591953692E-008
   3.1836000000000002      -0.25312308004242601       0.35979659556612115        4.1421570064628105E-008   8.4429118656581797E-008
   4.3746160000000005      -0.25441924016638828       0.35979546523735839        5.0596841308214873E-008   1.3502595996479667E-007
   5.6370929600000004      -0.25570906701629659       0.35979433997444765        5.7479213414321249E-008   1.9250517337911793E-007
   6.9753185376000006      -0.25698598221214775       0.35979322552903698        6.2729986431802966E-008   2.5523515981092088E-007
   8.3938376498560014      -0.25825373530524770       0.35979211864250477        6.6790085301140550E-008   3.2202524511206144E-007
   9.8974679088473625      -0.25951991949561870       0.35979101269296970        6.9945731955195031E-008   3.9197097706725646E-007
   11.491315983378204      -0.26079356176046825       0.35978989979504661        7.2389783137883804E-008   4.6436076020514028E-007
   13.180794942380897      -0.26208414233047633       0.35978877165475237        7.4260592237753871E-008   5.3862135244289412E-007
   14.971642638923752      -0.26340114349499355       0.35978761996322861        7.5664125564044029E-008   6.1428547800693819E-007
   16.869941197259177      -0.26475381733394543       0.35978643659960674        7.6685909838405324E-008   6.9097138784534354E-007
   18.882137669094728      -0.26615106062846128       0.35978521374034050        7.7397261085824179E-008   7.6836864893116768E-007
   21.015065929240414      -0.26760135334047130       0.35978394391298080        7.7858483790902602E-008   8.4622713272207028E-007
   23.275969884994840      -0.26911274096492388       0.35978262001153871        7.8120581537020785E-008   9.2434771425909103E-007
   25.672528078094530      -0.27069284963790591       0.35978123528311012        7.8226317484700125E-008   1.0025740317437911E-006
   28.212879762780204      -0.27234892603810890       0.35977978329268834        7.8211047388245118E-008   1.0807850791320362E-006
   30.905652548547017      -0.27408789537833173       0.35977825787199874        7.8103511638214188E-008   1.1588885907702504E-006
   33.759991701459839      -0.27591643147360290       0.35977665305758888        7.7926646002912000E-008   1.2368152367731623E-006
   36.785591203547433      -0.27784103350602579       0.35977496302286133        7.7698408689270834E-008   1.3145136454624331E-006
   39.992726675760281      -0.27986810486090558       0.35977318200807873        7.7432596258092467E-008   1.3919462417205255E-006
   43.392290276305900      -0.28200403030447230       0.35977130425159559        7.7139615918066713E-008   1.4690858576385922E-006
   46.995827692884255      -0.28425524875522273       0.35976932392471589        7.6827186728761555E-008   1.5459130443673537E-006
   50.815577354457311      -0.28662831988394005       0.35976723507171965        7.6500951360042444E-008   1.6224139957273961E-006
   54.864511995724754      -0.28912998367745946       0.35976503155581663        7.6164989881863492E-008   1.6985789856092596E-006
   59.156382715468240      -0.29176721285253571       0.35976270701112822        7.5822235723924114E-008   1.7744012213331838E-006
   63.705765678396340      -0.29454725857064618       0.35976025480030360        7.5474800553415006E-008   1.8498760218865987E-006
   68.528111619100116      -0.29747769027291238       0.35975766797705433        7.5124219112653574E-008   1.9250002409992522E-006
   73.639798316246129      -0.30056643064197652       0.35975493925272112        7.4771627195770953E-008   1.9997718681950233E-006
   79.058186215220900      -0.30382178673688554       0.35975206096595447        7.4417886317038167E-008   2.0741897545120614E-006
   84.801677388134152      -0.30725247827875490       0.35974902505464484        7.4063667737493883E-008   2.1482534222495554E-006
   90.889778031422210      -0.31086766393061771       0.35974582302935576        7.3709506866258356E-008   2.2219629291158137E-006
   97.343164713307544      -0.31467696625084340       0.35974244594765631        7.3355837068046381E-008   2.2953187661838599E-006
   104.18375459610600      -0.31869049583384890       0.35973888438889351        7.3003009907567363E-008   2.3683217760914271E-006
   111.43477987187237      -0.32291887500311289       0.35973512842907596        7.2651307049215600E-008   2.4409730831406425E-006
   119.12086666418472      -0.32737326129982591       0.35973116761564777        7.2300947511356119E-008   2.5132740306519987E-006
   127.26811866403581      -0.33206537091908894       0.35972699094201321        7.1952092771605773E-008   2.5852261234236044E-006
   135.90420578387796      -0.33700750218314851       0.35972258682172942        7.1604851312545430E-008   2.6568309747361500E-006
   145.05845813091065      -0.34221255910387688       0.35971794306231764        7.1259283534771297E-008   2.7280902582709212E-006
   154.76196561876529      -0.34769407506972932       0.35971304683866295        7.0915407491735069E-008   2.7990056657626561E-006
   165.04768355589121      -0.35346549200628546       0.35970788533237591        7.0571734881691503E-008   2.8695774006443475E-006
   175.95054456924470      -0.35954238091979407       0.35970244374043986        7.0230335727770839E-008   2.9398077363721184E-006
   187.50757724339940      -0.36594028263746631       0.35969670719795777        6.9890923921846456E-008   3.0096986602939649E-006
   199.75803187800338      -0.37267545786424605       0.35969066010202028        6.9553142739400656E-008   3.0792518030333656E-006
   212.74351379068358      -0.37976492867311784       0.35968428606772263        6.9216809719185592E-008   3.1484686127525512E-006
   226.50812461812461      -0.38722649858895941       0.35967756790309702        6.8881810354451412E-008   3.2173504231070024E-006
   241.09861209521210      -0.39507877581655293       0.35967048758101933        6.8548061884356563E-008   3.2858984849913591E-006
   256.56452882092486      -0.40334119944611496       0.35966302620824070        6.8215503015302911E-008   3.3541139880066620E-006
   272.95840055018039      -0.41203406781006457       0.35965516399229680        6.7884091052260014E-008   3.4219980790589221E-006
   290.33590458319122      -0.42117856880003013       0.35964688020648139        6.7553800195678004E-008   3.4895518792545999E-006
   308.75605885818271      -0.43079681229873473       0.35963815315276343        6.7224618740665301E-008   3.5567764979952652E-006
   328.28142238967371      -0.44091186504742436       0.35962896012237583        6.6896544422020673E-008   3.6236730424172857E-006
   348.97830773305412      -0.45154778835411524       0.35961927735372745        6.6569577801350959E-008   3.6902426202186364E-006
   370.91700619703738      -0.46272967909461604       0.35960907998724689        6.6243713922803100E-008   3.7564863341414394E-006
   394.17202656885962      -0.47448371448407439       0.35959834201673641        6.5918932661919761E-008   3.8224052668033594E-006
   418.82234816299120      -0.48683720110725209       0.35958703623680810        6.5595188324758566E-008   3.8880004551281183E-006
   444.95168905277069      -0.49981862869364757       0.35957513418596931        6.5272399141202862E-008   3.9532728542693208E-006
   472.64879039593694      -0.51345772910972964       0.35956260608493718        6.4950437341277575E-008   4.0182232916105988E-006
   502.00771781969320      -0.52778554101786546       0.35954942076978058        6.4629120502075710E-008   4.0828524121126741E-006
   533.12818088887479      -0.54283448062273665       0.35953554561951429        6.4308204808433929E-008   4.1471606169211078E-006
   566.11587174220733      -0.55863841889543586       0.35952094647779992        6.3987380780736742E-008   4.2111479977018445E-006
   601.08282404673980      -0.57523276563732639       0.35950558756843726        6.3666271895537759E-008   4.2748142695973820E-006
   638.14779348954426      -0.59265529731088140       0.35948943072061251        6.3345958173104401E-008   4.3381602277704866E-006
   677.43666109891694      -0.61094412292393918       0.35947243724812339        6.3023392294770351E-008   4.4011836200652569E-006
   719.08286076485194      -0.63013984353514874       0.35945456594414515        6.2698829395287075E-008   4.4638824494605436E-006
   763.22783241074308      -0.65028503982287023       0.35943577354877027        6.2371880723343425E-008   4.5262543301838869E-006
   810.02150235538772      -0.67142435449561289       0.35941601466729317        6.2041954216652300E-008   4.5882962844005393E-006
   859.62279249671099      -0.69360463467710876       0.35939524163324377        6.1708421274775295E-008   4.6500047056753148E-006
   912.20016004651370      -0.71687507627460989       0.35937340437008669        6.1370654025954985E-008   4.7113753597012700E-006
   967.93216964930457      -0.74128737669993372       0.35935045024582096        6.1028045611560316E-008   4.7724034053128302E-006
   1027.0080998282629      -0.76689589811718373       0.35932632391860614        6.0680027638993638E-008   4.8330834329518240E-006
   1089.6285858179588      -0.79375784228526680       0.35930096717259513        6.0326086381153432E-008   4.8934095193329771E-006
   1156.0063009670364      -0.82193343793984375       0.35927431874329901        5.9965777491861095E-008   4.9533752968248382E-006
   1226.3666790250586      -0.85148614173026116       0.35924631413177432        5.9598738797706241E-008   5.0129740356225447E-006
   1300.9486797665622      -0.88248285383795666       0.35921688540686497        5.9224700788702883E-008   5.0721987364112472E-006
   1380.0056005525560      -0.91499414952544034       0.35918596099465600        5.8843494541945442E-008   5.1310422309531930E-006
   1463.8059365857093      -0.94909452799651683       0.35915346545422977        5.8455056933161078E-008   5.1894972878863540E-006
   1552.6342927808519      -0.98486268008977629       0.35911931923874113        5.8059433104125092E-008   5.2475567209904789E-006
   1646.7923503477032       -1.0223817764795553       0.35908343844075441        5.7656776256808352E-008   5.3052134972472877E-006
   1746.5998913685655       -1.0617391317220175       0.35904573514055943        5.7246014925930565E-008   5.3624595121732178E-006
   1852.3958848506795       -1.1030284551900882       0.35900611528159854        5.6829923002620183E-008   5.4192894351758379E-006
   1964.5396379417205       -1.1463482887134444       0.35896448020199817        5.6407941112128503E-008   5.4756973762879664E-006
   2083.4120162182239       -1.1918030634829995       0.35892072566800853        5.5980520715863075E-008   5.5316778970038291E-006
   2209.4167371913172       -1.2395035191866393       0.35887474152495097        5.5548266824702169E-008   5.5872261638285310E-006
   2342.9817414227964       -1.2895671524112302       0.35882641132964582        5.5111853343041905E-008   5.6423380171715728E-006
   2484.5606459081641       -1.3421187104238166       0.35877561195027480        5.4672006122245393E-008   5.6970100232938182E-006
   2634.6342846626540       -1.3972907274961888       0.35872221313807440        5.4229490640957229E-008   5.7512395139347751E-006
   2793.7123417424132       -1.4552241069480625       0.35866607706976045        5.3785099996153015E-008   5.8050246139309279E-006
   2962.3350822469583       -1.5160687532151926       0.35860705785879110        5.3339643129958891E-008   5.8583642570608872E-006
   3141.0751871817761       -1.5799847453245413       0.35854500056080640        5.2894665792996177E-008   5.9112589228538832E-006
   3330.5396984126828       -1.6471416119360001       0.35847974204547145        5.2449624923445770E-008   5.9637085477773289E-006
   3531.3720803174438       -1.7177206846918631       0.35841110890712963        5.2005918075096402E-008   6.0157144658524253E-006
   3744.2544051364907       -1.7919153938883372       0.35833891740231988        5.1564342931958834E-008   6.0672788087843844E-006
   3969.9096694446803       -1.8699322643107787       0.35826297274340524        5.1125636741177553E-008   6.1184044455255616E-006
   4209.1042496113614       -1.9519919725173638       0.35818306837305536        5.0690498080455146E-008   6.1690949436060164E-006
   4462.6505045880431       -2.0383304936943971       0.35809898519845706        5.0259582762740669E-008   6.2193545263687572E-006
   4731.4095348633255       -2.1291998260445877       0.35801049129098317        4.9832935418846228E-008   6.2691874617876036E-006
   5016.2941069551252       -2.2248709611709208       0.35791733946065662        4.9412150358281200E-008   6.3185996121458851E-006
   5318.2717533724335       -2.3256336381486213       0.35781926803477088        4.8997260339091722E-008   6.3675968724849767E-006
   5638.3680585747798       -2.4317986455275387       0.35771599923731140        4.8588705783917493E-008   6.4161855782688945E-006
   5977.6701420892668       -2.5436995233879296       0.35760723824726548        4.8186892441594968E-008   6.4643724707104893E-006
   6337.3303506146231       -2.6616950613564558       0.35749267159252923        4.7792674102760633E-008   6.5121651448132497E-006
   6718.5701716515005       -2.7861694810141016       0.35737196791641274        4.7405451952966654E-008   6.5595705967662162E-006
   7122.6843819505912       -2.9175366930344580       0.35724477492809953        4.7025907884626361E-008   6.6065965046508428E-006
   7551.0454448676273       -3.0562418666149647       0.35711071912785630        4.6654268246825786E-008   6.6532507728976686E-006
   8005.1081715596856       -3.2027633642760325       0.35696940535682486        4.6290228350084507E-008   6.6995410012477528E-006
   8486.4146618532668       -3.3576177710757782       0.35682041357299477        4.5934758262256776E-008   6.7454757595100094E-006
   8996.5995415644629       -3.5213604812114894       0.35666330015538300        4.5587523503011834E-008   6.7910632830130214E-006
   9537.3955140583312       -3.6945907668144171       0.35649759515890878        4.5248950873323898E-008   6.8363122338863453E-006
   10110.639244901831       -3.8779528394800700       0.35632280371960534        4.4918217660029624E-008   6.8812304515463751E-006
   10718.277599595942       -4.0721423597051096       0.35613840258814355        4.4595561929534585E-008   6.9258260134759098E-006
   11362.374255571698       -4.2779085013075830       0.35594384130230833        4.4280328253835428E-008   6.9701063417297456E-006
   12045.116710906001       -4.4960617804535046       0.35573853832973257        4.3973055481635858E-008   7.0140793972113813E-006
   12768.823713560361       -4.7274767572870493       0.35552188257875750        4.3673418199754831E-008   7.0577528154111363E-006
   13535.953136373984       -4.9730958760296824       0.35529323433792970        4.3380197800440698E-008   7.1011330132115768E-006
   14349.110324556425       -5.2339380338495749       0.35505192240790001        4.3092756297604578E-008   7.1442257695091811E-006
   15211.056944029811       -5.5111079962905682       0.35479724122940337        4.2811252979405913E-008   7.1870370224885870E-006
   16124.720360671601       -5.8058019105982863       0.35452845244334508        4.2535150257939179E-008   7.2295721727465262E-006
   17093.203582311897       -6.1193113361809486       0.35424478858485026        4.2262294541424425E-008   7.2718344672879507E-006
   18093.203582311897       -6.4443655678293750       0.35395319251448848        4.1999355718556480E-008   7.3138338230065075E-006
   19093.203582311897       -6.7708788289151913       0.35366288094386389        4.1752026414259665E-008   7.3555858494207672E-006
   20093.203582311897       -7.0989494092525671       0.35337381214599362        4.1518437843222462E-008   7.3971042872639895E-006
   21093.203582311897       -7.4286651358988918       0.35308595029342982        4.1296767036662945E-008   7.4384010543006522E-006
   22093.203582311897       -7.7601054077237981       0.35279926411153106        4.1085502703931179E-008   7.4794865570045837E-006
   23093.203582311897       -8.0933429461681197       0.35251372572293077        4.0883398060260932E-008   7.5203699550648450E-006
   24093.203582311897       -8.4284451653069308       0.35222930978158162        4.0689422714289051E-008   7.5610593777791338E-006
   25093.203582311897       -8.7654752491920416       0.35194599282544642        4.0502722996205269E-008   7.6015621007753387E-006
   26093.203582311897       -9.1044930012378344       0.35166375279584994        4.0322589609872313E-008   7.6418846903852117E-006
   27093.203582311897       -9.4455555161825941       0.35138256868308215        4.0148431268468924E-008   7.6820331216536812E-006
   28093.203582311897       -9.7887177138587251       0.35110242026715943        3.9979753196217646E-008   7.7220128748498983E-006
   29093.203582311897       -10.134032765136572       0.35082328793000356        3.9816139589656122E-008   7.7618290144395537E-006
   30093.203582311897       -10.481554052524549       0.35054515123168889        3.9657529372228029E-008   7.8014865438117826E-006
   31093.203582311897       -10.831329609342669       0.35026799348142829        3.9502983303530754E-008   7.8409895271153132E-006
   32093.203582311897       -11.183409890896225       0.34999179561378796        3.9352610254340671E-008   7.8803421373696533E-006
   33093.203582311893       -11.537844073764241       0.34971653927711371        3.9206193381525119E-008   7.9195483307511775E-006
   34093.203582311893       -11.894680632979300       0.34944220645670004        3.9063536865651919E-008   7.9586118676168292E-006
   35093.203582311893       -12.253967556309963       0.34916877938472152        3.8924471464083303E-008   7.9975363390809118E-006
   36093.203582311893       -12.615752474002194       0.34889624051035928        3.8788849204858630E-008   8.0363251882857711E-006
   37093.203582311893       -12.980082754824977       0.34862457248948958        3.8656539177794388E-008   8.0749817274635651E-006
   38093.203582311893       -13.347005583585712       0.34835375818241987        3.8527424335263205E-008   8.1135091517988285E-006
   39093.203582311893       -13.716568026317857       0.34808378065539980        3.8401398989179577E-008   8.1519105507880085E-006
   40093.203582311893       -14.088817086320114       0.34781462318401551        3.8278366816677124E-008   8.1901889176046853E-006
   41093.203582311893       -14.463799753017762       0.34754626925748017        3.8158239254156210E-008   8.2283471568588423E-006
   42093.203582311893       -14.841563045024738       0.34727870258324883        3.8040934197258113E-008   8.2663880910561010E-006
   43093.203582311893       -15.222154048464192       0.34701190709158680        3.7926374944785584E-008   8.3043144660008860E-006
   44093.203582311893       -15.605619951347455       0.34674586693987292        3.7814489339295515E-008   8.3421289553401814E-006
