 #              _____________________  _______________________             #
 #              ___  __ \__  __ \_  / / /_  /___  ____/_  ___/             #
 #              __  / / /_  /_/ /  / / /_  __/_  __/  _____ \              #
 #              _  /_/ /_  _, _// /_/ / / /_ _  /___  ____/ /              #
 #              /_____/ /_/ |_| \____/  \__/ /_____/  /____/               #
 #                                                                         #
  
 #        time                      h  [L]                   theta [-]       Darcian flow [L.T^{-1}]   in    x              directions   cumulative flux
 #-----------------------------------------------------------------------------------------------

   0.0000000000000000      -0.28000000000000003       0.35977306608771875        1.6806575933321869E-021   1.6806575933321869E-021
   1.0000000000000000      -0.28230502918909056       0.35977103954409789        4.2964891742794005E-008   4.2964891742795686E-008
   2.0600000000000001      -0.28447890263795889       0.35976912711577308        6.4865976359363229E-008   1.0783086810215892E-007
   3.1836000000000002      -0.28637293351575932       0.35976745993644332        7.5845243007658194E-008   1.8367611110981712E-007
   4.3746160000000005      -0.28807099990278889       0.35976596451354748        8.2177396819497232E-008   2.6585350792931434E-007
   5.6370929600000004      -0.28963881950933951       0.35976458317935478        8.6280021512113538E-008   3.5213352944142789E-007
   6.9753185376000006      -0.29111879771726812       0.35976327869987373        8.9139583831176159E-008   4.4127311327260405E-007
   8.3938376498560014      -0.29253990709079619       0.35976202561913267        9.1213744119880847E-008   5.3248685739248485E-007
   9.8974679088473625      -0.29392381114969152       0.35976080488634965        9.2741929642493951E-008   6.2522878703497874E-007
   11.491315983378204      -0.29528809182961452       0.35975960102285220        9.3863469174086015E-008   7.1909225620906477E-007
   13.180794942380897      -0.29664791519035433       0.35975840065966824        9.4667973681223924E-008   8.1376022989028868E-007
   14.971642638923752      -0.29801687598937787       0.35975719179617410        9.5218693929867421E-008   9.0897892382015616E-007
   16.869941197259177      -0.29940741225184869       0.35975596343646837        9.5563856778609098E-008   1.0045427805987653E-006
   18.882137669094728      -0.30083100278090014       0.35975470541641347        9.5742261873657540E-008   1.1002850424724229E-006
   21.015065929240414      -0.30229826547854699       0.35975340831772651        9.5786063484250931E-008   1.1960711059566739E-006
   23.275969884994840      -0.30381902041785647       0.35975206341287302        9.5722192275895118E-008   1.2917932982325691E-006
   25.672528078094530      -0.30540234995463178       0.35975066261234151        9.5573155895058191E-008   1.3873664541276272E-006
   28.212879762780204      -0.30705666959181782       0.35974919840221969        9.5357584951868758E-008   1.4827240390794960E-006
   30.905652548547017      -0.30878981277045597       0.35974766376927209        9.5090693262489170E-008   1.5778147323419851E-006
   33.759991701459839      -0.31060912723110173       0.35974605211559491        9.4784718097638051E-008   1.6725994504396232E-006
   36.785591203547433      -0.31252157816352244       0.35974435716706216        9.4449355458174009E-008   1.7670488058977972E-006
   39.992726675760281      -0.31453385281611856       0.35974257288026318        9.4092183400264528E-008   1.8611409892980618E-006
   43.392290276305900      -0.31665246177258866       0.35974069335216463        9.3719059644100591E-008   1.9548600489421624E-006
   46.995827692884255      -0.31888383319419994       0.35973871273576868        9.3334480440817533E-008   2.0481945293829801E-006
   50.815577354457311      -0.32123439761782085       0.35973662516390470        9.2941891628237284E-008   2.1411364210112173E-006
   54.864511995724754      -0.32371066215775318       0.35973442468217892        9.2543947607879327E-008   2.2336803686190966E-006
   59.156382715468240      -0.32631927403694139       0.35973210519115945        9.2142718372697438E-008   2.3258230869917942E-006
   63.705765678396340      -0.32906707419348774       0.35972966039714449        9.1739848125979108E-008   2.4175629351177734E-006
   68.528111619100116      -0.33196114224980700       0.35972708377038154        9.1336671276142115E-008   2.5088996063939155E-006
   73.639798316246129      -0.33500883441325430       0.35972436850935380        9.0934292735211786E-008   2.5998338991291271E-006
   79.058186215220900      -0.33821781594394656       0.35972150750968740        9.0533639691901625E-008   2.6903675388210289E-006
   84.801677388134152      -0.34159608973568018       0.35971849333630651        9.0135491629988564E-008   2.7805030304510176E-006
   90.889778031422210      -0.34515202236796644       0.35971531819763047        8.9740494576413491E-008   2.8702435250274310E-006
   97.343164713307544      -0.34889436875256347       0.35971197392080750        8.9349164608355687E-008   2.9595926896357868E-006
   104.18375459610600      -0.35283229625560897       0.35970845192719497        8.8961884685553344E-008   3.0485545743213403E-006
   111.43477987187237      -0.35697540895247970       0.35970474320749124        8.8578898003356622E-008   3.1371334723246968E-006
   119.12086666418472      -0.36133377248064658       0.35970083829609389        8.8200300329051282E-008   3.2253337726537480E-006
   127.26811866403581      -0.36591793980062076       0.35969672724439489        8.7826033194935880E-008   3.3131598058486839E-006
   135.90420578387796      -0.37073897805512246       0.35969239959283084        8.7455879356566828E-008   3.4006156852052506E-006
   145.05845813091065      -0.37580849662722360       0.35968784434158424        8.7089461551384168E-008   3.4877051467566350E-006
   154.76196561876529      -0.38113867643378097       0.35968304991989053        8.6726245278645061E-008   3.5744313920352802E-006
   165.04768355589121      -0.38674146038108265       0.35967800491079011        8.6363251492892735E-008   3.6607946435281728E-006
   175.95054456924470      -0.39263111198641870       0.35967269574276772        8.6003258558311142E-008   3.7467979020864838E-006
   187.50757724339940      -0.39882166664328467       0.35966710897756143        8.5644313062105243E-008   3.8324422151485893E-006
   199.75803187800338      -0.40532786057747161       0.35966123046942905        8.5285067421317421E-008   3.9177272825699069E-006
   212.74351379068358      -0.41216518762748577       0.35965504530804571        8.4924327278045508E-008   4.0026516098479528E-006
   226.50812461812461      -0.41934992037807917       0.35964853779323119        8.4560887971327951E-008   4.0872124978192811E-006
   241.09861209521210      -0.42689914184596683       0.35964169139986535        8.4193534205458743E-008   4.1714060320247396E-006
   256.56452882092486      -0.43483078156284799       0.35963448873851717        8.3821061262952355E-008   4.2552270932876916E-006
   272.95840055018039      -0.44316365405816283       0.35962691151358323        8.3442300882853696E-008   4.3386693941705452E-006
   290.33590458319122      -0.45191749912661366       0.35961894047949261        8.3056147228201294E-008   4.4217255413987464E-006
   308.75605885818271      -0.46111302379318897       0.35961055539506520        8.2661580818283657E-008   4.5043871222170303E-006
   328.28142238967371      -0.47077194612342299       0.35960173497589587        8.2257689211524910E-008   4.5866448114285549E-006
   348.97830773305412      -0.48091704114501760       0.35959245684453628        8.1843683716668995E-008   4.6684884951452235E-006
   370.91700619703738      -0.49157218921445722       0.35958269747818272        8.1418911761561371E-008   4.7499074069067852E-006
   394.17202656885962      -0.50276242720413356       0.35957243215354273        8.0982864839970308E-008   4.8308902717467558E-006
   418.82234816299120      -0.51451400291124372       0.35956163488852960        8.0535182203713672E-008   4.9114254539504692E-006
   444.95168905277069      -0.52685443310419688       0.35955027838042297        8.0075650664621354E-008   4.9915011046150909E-006
   472.64879039593694      -0.53981256562781499       0.35953833394012857        7.9604201014413024E-008   5.0711053056295036E-006
   502.00771781969320      -0.55341864598877766       0.35952577142217323        7.9120901653550263E-008   5.1502262072830540E-006
   533.12818088887479      -0.56770438884036967       0.35951255915007413        7.8625950049688325E-008   5.2288521573327425E-006
   566.11587174220733      -0.58270305478401296       0.35949866383672763        7.8119662626986512E-008   5.3069718199597287E-006
   601.08282404673980      -0.59844953290698977       0.35948405049946530        7.7602463633988578E-008   5.3845742835937177E-006
   638.14779348954426      -0.61498141549032881       0.35946868145196920        7.7080271205631306E-008   5.4616545547993491E-006
   677.43666109891694      -0.63233600416522495       0.35945251907892078        7.6543744121544687E-008   5.5381982989208935E-006
   719.08286076485194      -0.65055382129574368       0.35943552256696876        7.5997938809325691E-008   5.6141962377302188E-006
   763.22783241074308      -0.66967726554730789       0.35941764914453400        7.5443792595626617E-008   5.6896400303258454E-006
   810.02150235538772      -0.68975085395976710       0.35939885384964892        7.4882111685258880E-008   5.7645221420111043E-006
   859.62279249671099      -0.71082137020477865       0.35937908938510887        7.4313727867327951E-008   5.8388358698784319E-006
   912.20016004651370      -0.73293800409091592       0.35935830598223839        7.3739501249993225E-008   5.9125753711284251E-006
   967.93216964930457      -0.75615249839876797       0.35933645125846775        7.3160312893339691E-008   5.9857356840217649E-006
   1027.0080998282629      -0.78051930610833220       0.35931347006601883        7.2577056729122394E-008   6.0583127407508872E-006
   1089.6285858179588      -0.80609575926054933       0.35928930433071721        7.1990631937645763E-008   6.1303033726885331E-006
   1156.0063009670364      -0.83294225045920711       0.35926389288019384        7.1401935945302529E-008   6.2017053086338361E-006
   1226.3666790250586      -0.86112242805590489       0.35923717126073923        7.0811858048276974E-008   6.2725171666821134E-006
   1300.9486797665622      -0.89070340615171162       0.35920907154202514        7.0221273641399673E-008   6.3427384403235132E-006
   1380.0056005525560      -0.92175599065680158       0.35917952210885157        6.9631039026382792E-008   6.4123694793498963E-006
   1463.8059365857093      -0.95435492276984046       0.35914844743901619        6.9041986775072541E-008   6.4814114661249689E-006
   1552.6342927808519      -0.98857914137222147       0.35911576786633509        6.8454921622426125E-008   6.5498663877473947E-006
   1646.7923503477032       -1.0245120659796332       0.35908139932777339        6.7870616866859139E-008   6.6177370046142541E-006
   1746.5998913685655       -1.0622410539967844       0.35904525390668302        6.7286618706947597E-008   6.6850236233212019E-006
   1852.3958848506795       -1.1018604654721500       0.35900723692461078        6.6709688489834230E-008   6.7517333118110361E-006
   1964.5396379417205       -1.1434688678126173       0.35896724965053833        6.6137673232667706E-008   6.8178709850437040E-006
   2083.4120162182239       -1.1871708838094470       0.35892518757286423        6.5571126317332998E-008   6.8834421113610368E-006
   2209.4167371913172       -1.2330774269169338       0.35888094022224315        6.5010623476969012E-008   6.9484527348380056E-006
   2342.9817414227964       -1.2813061376610841       0.35883439081120583        6.4456699457362096E-008   7.0129094342953675E-006
   2484.5606459081641       -1.3319818711198743       0.35878541583549067        6.3909844637391814E-008   7.0768192789327590E-006
   2634.6342846626540       -1.3852372272092490       0.35873388464664679        6.3370504628253965E-008   7.1401897835610134E-006
   2793.7123417424132       -1.4412131266712269       0.35867965899503695        6.2839080317856323E-008   7.2030288638788700E-006
   2962.3350822469583       -1.5000594370597971       0.35862259254131146        6.2315928195295242E-008   7.2653447920741649E-006
   3141.0751871817761       -1.5619361944840848       0.35856252980894793        6.1802626172019151E-008   7.3271474182461837E-006
   3330.5396984126828       -1.6270125599658318       0.35849930735861091        6.1297029019492910E-008   7.3884444472656764E-006
   3531.3720803174438       -1.6954697526230347       0.35843275112898298        6.0800515733423929E-008   7.4492449629990999E-006
   3744.2544051364907       -1.7675008955864051       0.35836267680283423        6.0313292700537123E-008   7.5095582556996373E-006
   3969.9096694446803       -1.8433121159553820       0.35828888899116684        5.9835507871189075E-008   7.5693937635708268E-006
   4209.1042496113614       -1.9231236053319229       0.35821118049526879        5.9367272349481842E-008   7.6287610359203088E-006
   4462.6505045880431       -2.0071707679597113       0.35812933152955151        5.8908662449563233E-008   7.6876696983698723E-006
   4731.4095348633255       -2.0957049977145723       0.35804310935898642        5.8458956130980999E-008   7.7461286545008525E-006
   5016.2941069551252       -2.1889966559774834       0.35795226585430462        5.8019621418823866E-008   7.8041482759196765E-006
   5318.2717533724335       -2.2873345783308836       0.35785653849852705        5.7589931226113052E-008   7.8617382071457903E-006
   5638.3680585747798       -2.3910287297802761       0.35775564840840840        5.7169834520223014E-008   7.9189080416660131E-006
   5977.6701420892668       -2.5004118354563136       0.35764929944736701        5.6759262733815734E-008   7.9756673043998280E-006
   6337.3303506146231       -2.6158417753556367       0.35753717670365431        5.6358705750403525E-008   8.0320260101502311E-006
   6718.5701716515005       -2.7377020938158432       0.35741894692327747        5.5966936767790256E-008   8.0879929469180210E-006
   7122.6843819505912       -2.8664063260977795       0.35729425537660009        5.5584363984530948E-008   8.1435773109025521E-006
   7551.0454448676273       -3.0023994025603016       0.35716272572833885        5.5210822698745616E-008   8.1987881336012979E-006
   8005.1081715596856       -3.1461600495607374       0.35702395912233942        5.4845616889367122E-008   8.2536337504906649E-006
   8486.4146618532668       -3.2982053915870071       0.35687753135613665        5.4489473922439441E-008   8.3081232244131044E-006
   8996.5995415644629       -3.4590919791098447       0.35672299375026378        5.4141662568592499E-008   8.3622648869816971E-006
   9537.3955140583312       -3.6294208759558484       0.35655987037813763        5.3802321505218606E-008   8.4160672084869163E-006
   10110.639244901831       -3.8098395648511367       0.35638765866849809        5.3470316019173686E-008   8.4695375245060896E-006
   10718.277599595942       -4.0010480668534729       0.35620582632544950        5.3145671689952324E-008   8.5226831961960417E-006
   11362.374255571698       -4.2038016099139019       0.35601381195452880        5.2827507928862478E-008   8.5755107041249045E-006
   12045.116710906001       -4.4189174934830602       0.35581102215283889        5.2516133573405933E-008   8.6280268376983110E-006
   12768.823713560361       -4.6472784749242173       0.35559683241834866        5.2210956671686072E-008   8.6802377943699967E-006
   13535.953136373984       -4.8898383276999979       0.35537058655970288        5.1910625711011517E-008   8.7321484200810082E-006
   14349.110324556425       -5.1476298477451818       0.35513159447573162        5.1614419933522885E-008   8.7837628400145304E-006
   15211.056944029811       -5.4217725444336784       0.35487913100423207        5.1322306167340927E-008   8.8350851461818711E-006
   16124.720360671601       -5.7134792736231566       0.35461243657845470        5.1033557091800418E-008   8.8861187032736722E-006
   17093.203582311897       -6.0240643186629121       0.35433071744428635        5.0746084572077831E-008   8.9368647878457499E-006
   18093.203582311897       -6.3463515871059570       0.35404084717996426        5.0467007188409228E-008   8.9873317950341597E-006
   19093.203582311897       -6.6703473038935419       0.35375198853079004        5.0202684806447034E-008   9.0375344798406062E-006
   20093.203582311897       -6.9961414697703050       0.35346411439701680        4.9951243295895988E-008   9.0874857231365025E-006
   21093.203582311897       -7.3238140469789048       0.35317720293382343        4.9710987727340449E-008   9.1371967108638428E-006
   22093.203582311897       -7.6534369785856002       0.35289123620795482        4.9480523834770182E-008   9.1866772346986132E-006
   23093.203582311897       -7.9850758840675473       0.35260619908514063        4.9258707973053577E-008   9.2359359426716659E-006
   24093.203582311897       -8.3187913840765066       0.35232207840133539        4.9044600343733353E-008   9.2849805430153994E-006
   25093.203582311897       -8.6546401439432668       0.35203886234498705        4.8837426720201052E-008   9.3338179697356004E-006
   26093.203582311897       -8.9926756990815626       0.35175653999949241        4.8636547459086483E-008   9.3824545171946867E-006
   27093.203582311897       -9.3329491103955409       0.35147510100731627        4.8441432412823684E-008   9.4308959496075100E-006
   28093.203582311897       -9.6755094867277922       0.35119453532635125        4.8251640590802846E-008   9.4791475901983129E-006
   29093.203582311897       -10.020404403005159       0.35091483305601517        4.8066803643175592E-008   9.5272143938414883E-006
   30093.203582311897       -10.367680486834068       0.35063598411573199        4.7886885532748152E-008   9.5751012793742362E-006
   31093.203582311897       -10.717382517877098       0.35035797909995225        4.7710998541810510E-008   9.6228122779160466E-006
   32093.203582311897       -11.069555917072018       0.35008080741203007        4.7539309542887499E-008   9.6703515874589339E-006
   33093.203582311893       -11.424244802283051       0.34980445893306905        4.7371611989515126E-008   9.7177231994484490E-006
   34093.203582311893       -11.781492938355566       0.34952892336005592        4.7207733877011044E-008   9.7649309333254595E-006
   35093.203582311893       -12.141343869814639       0.34925419019475396        4.7047529610537799E-008   9.8119784629359979E-006
   36093.203582311893       -12.503841004649718       0.34898024876249639        4.6890872915088906E-008   9.8588693358510860E-006
   37093.203582311893       -12.869027689985739       0.34870708822949664        4.6737652510211546E-008   9.9056069883612977E-006
   38093.203582311893       -13.236947279454528       0.34843469761977480        4.6587769065588364E-008   9.9521947574268865E-006
   39093.203582311893       -13.607643192126881       0.34816306583254242        4.6441132881627581E-008   9.9986358903085146E-006
   40093.203582311893       -13.981158963811506       0.34789218166002867        4.6297662061048338E-008   1.0044933552369563E-005
   41093.203582311893       -14.357538291788961       0.34762203380545148        4.6157281046831196E-008   1.0091090833416395E-005
   42093.203582311893       -14.736825074005171       0.34735261090081387        4.6019919445607968E-008   1.0137110752862003E-005
   43093.203582311893       -15.119063443642752       0.34708390152424573        4.5885511078693647E-008   1.0182996263940697E-005
   44093.203582311893       -15.504297799818984       0.34681589421669834        4.5753993216639292E-008   1.0228750257157337E-005
