 #              _____________________  _______________________             #
 #              ___  __ \__  __ \_  / / /_  /___  ____/_  ___/             #
 #              __  / / /_  /_/ /  / / /_  __/_  __/  _____ \              #
 #              _  /_/ /_  _, _// /_/ / / /_ _  /___  ____/ /              #
 #              /_____/ /_/ |_| \____/  \__/ /_____/  /____/               #
 #                                                                         #
  
 #        time                      h  [L]                   theta [-]       Darcian flow [L.T^{-1}]   in    x              directions   cumulative flux
 #-----------------------------------------------------------------------------------------------

   0.0000000000000000      -0.20000000000000001       0.35984249177530825        1.2548996820743664E-024   1.2548996820743664E-024
   1.0000000000000000      -0.20011352238001012       0.35984239466972268        2.2493011711557472E-009   2.2493011711557485E-009
   2.0600000000000001      -0.20040728556249277       0.35984214336744336        6.9734271275399762E-009   9.2227282986957251E-009
   3.1836000000000002      -0.20087806773734967       0.35984174056956042        1.3053606780883994E-008   2.2276335079579719E-008
   4.3746160000000005      -0.20149411420946162       0.35984121336736158        1.9397481279769023E-008   4.1673816359348739E-008
   5.6370929600000004      -0.20222370301169770       0.35984058882619868        2.5350520559371333E-008   6.7024336918720078E-008
   6.9753185376000006      -0.20304419063302251       0.35983988625284324        3.0615805745918867E-008   9.7640142664638939E-008
   8.3938376498560014      -0.20394193164258531       0.35983911726123186        3.5103235002154672E-008   1.3274337766679360E-007
   9.8974679088473625      -0.20490981677664144       0.35983828787388883        3.8826540161352835E-008   1.7156991782814645E-007
   11.491315983378204      -0.20594493227475721       0.35983740052065777        4.1847385091820718E-008   2.1341730291996716E-007
   13.180794942380897      -0.20704690262372447       0.35983645545409293        4.4247051464657372E-008   2.5766435438462454E-007
   14.971642638923752      -0.20821685577375076       0.35983545163320552        4.6112085734061285E-008   3.0377644011868582E-007
   16.869941197259177      -0.20945682513507669       0.35983438723397571        4.7526829801244961E-008   3.5130326991993080E-007
   18.882137669094728      -0.21076942461078310       0.35983325992641790        4.8569480300782747E-008   3.9987275022071356E-007
   21.015065929240414      -0.21215768210686992       0.35983206701604453        4.9310092078389808E-008   4.4918284229910336E-007
   23.275969884994840      -0.21362495961354980       0.35983080551117402        4.9809740202149936E-008   4.9899258250125334E-007
   25.672528078094530      -0.21517491794007787       0.35982947215191846        5.0120417381336369E-008   5.4911299988258969E-007
   28.212879762780204      -0.21681150319899570       0.35982806342044044        5.0285413907540388E-008   5.9939841379013012E-007
   30.905652548547017      -0.21853894334931126       0.35982657554248204        5.0340011160541549E-008   6.4973842495067171E-007
   33.759991701459839      -0.22036174931490002       0.35982500448485460        5.0312364456422166E-008   7.0005078940709386E-007
   36.785591203547433      -0.22228471841042885       0.35982334595082843        5.0224478493880275E-008   7.5027526790097413E-007
   39.992726675760281      -0.22431293934288632       0.35982159537403846        5.0093199193463647E-008   8.0036846709443778E-007
   43.392290276305900      -0.22645179870356008       0.35981974791097104        4.9931163778962681E-008   8.5029963087340041E-007
   46.995827692884255      -0.22870698907255482       0.35981779843191275        4.9747667904117918E-008   9.0004729877751834E-007
   50.815577354457311      -0.23108451886789000       0.35981574151023515        4.9549424369896534E-008   9.4959672314741492E-007
   54.864511995724754      -0.23359072400749084       0.35981357140994241        4.9341201838602295E-008   9.9893792498601730E-007
   59.156382715468240      -0.23623228137441221       0.35981128207147328        4.9126343258558587E-008   1.0480642682445758E-006
   63.705765678396340      -0.23901622400928144       0.35980886709580800        4.8907172067686751E-008   1.0969714403122625E-006
   68.528111619100116      -0.24194995790801624       0.35980631972696814        4.8685299607204603E-008   1.1456567399194672E-006
   73.639798316246129      -0.24504128027791941       0.35980363283301997        4.8461849839985688E-008   1.1941185897594528E-006
   79.058186215220900      -0.24829839909818288       0.35980079888569816        4.8237617947844094E-008   1.2423562077072969E-006
   84.801677388134152      -0.25172995383723634       0.35979780993876193        4.8013178302100579E-008   1.2903693860093975E-006
   90.889778031422210      -0.25534503719508750       0.35979465760518237        4.7788955277782477E-008   1.3381583412871799E-006
   97.343164713307544      -0.25915321776038353       0.35979133303324157        4.7565267942557536E-008   1.3857236092297375E-006
   104.18375459610600      -0.26316456349704570       0.35978782688160560        4.7342357193743837E-008   1.4330659664234814E-006
   111.43477987187237      -0.26738966600256642       0.35978412929340636        4.7120401696030577E-008   1.4801863681195120E-006
   119.12086666418472      -0.27183966550879796       0.35978022986934904        4.6899527118653965E-008   1.5270858952381659E-006
   127.26811866403581      -0.27652627662602142       0.35977611763983153        4.6679811717589009E-008   1.5737657069557549E-006
   135.90420578387796      -0.28146181486208788       0.35977178103603952        4.6461290227307341E-008   1.6202269971830622E-006
   145.05845813091065      -0.28665922398017762       0.35976720785995459        4.6243957256542487E-008   1.6664709544396047E-006
   154.76196561876529      -0.29213210429058883       0.35976238525318127        4.6027770854073697E-008   1.7124987252936784E-006
   165.04768355589121      -0.29789415606215958       0.35975730018197166        4.5810903404026382E-008   1.7583096286977048E-006
   175.95054456924470      -0.30396085974567683       0.35975193794814875        4.5595863571924811E-008   1.8039054922696297E-006
   187.50757724339940      -0.31034797342974030       0.35974628350580673        4.5382087018686573E-008   1.8492875792883162E-006
   199.75803187800338      -0.31707202401309192       0.35974032102116432        4.5169181336185332E-008   1.8944567606245016E-006
   212.74351379068358      -0.32415035098927975       0.35973403382590724        4.4956883313462882E-008   1.9394136439379645E-006
   226.50812461812461      -0.33160114664822388       0.35972740437328210        4.4744990765814225E-008   1.9841586347037786E-006
   241.09861209521210      -0.33944349629967263       0.35972041419377754        4.4533327575335278E-008   2.0286919622791139E-006
   256.56452882092486      -0.34769742048422758       0.35971304384865593        4.4321731697855392E-008   2.0730136939769694E-006
   272.95840055018039      -0.35638391974962108       0.35970527288082149        4.4110052974906050E-008   2.1171237469518753E-006
   290.33590458319122      -0.36552502225411154       0.35969707976278964        4.3898154339771567E-008   2.1610219012916469E-006
   308.75605885818271      -0.37514383437790022       0.35968844184159543        4.3685913800332421E-008   2.2047078150919792E-006
   328.28142238967371      -0.38526459448439959       0.35967933528051538        4.3473226226298028E-008   2.2481810413182774E-006
   348.97830773305412      -0.39591272994249110       0.35966973499750698        4.3260004637686656E-008   2.2914410459559638E-006
   370.91700619703738      -0.40711491749219803       0.35965961460030110        4.3046180960286511E-008   2.3344872269162502E-006
   394.17202656885962      -0.41889914700826686       0.35964894631811073        4.2831706321218718E-008   2.3773189332374691E-006
   418.82234816299120      -0.43129478868813603       0.35963770092995223        4.2616550996475042E-008   2.4199354842339440E-006
   444.95168905277069      -0.44433266366305030       0.35962584768960854        4.2400704127360101E-008   2.4623361883613041E-006
   472.64879039593694      -0.45804511800302888       0.35961335424729668        4.2184173309267698E-008   2.5045203616705718E-006
   502.00771781969320      -0.47246610005981449       0.35960018656813925        4.1966984128595671E-008   2.5464873457991674E-006
   533.12818088887479      -0.48763124106791172       0.35958630884757270        4.1749179689885743E-008   2.5882365254890530E-006
   566.11587174220733      -0.50357793890613967       0.35957168342385698        4.1530820135258713E-008   2.6297673456243118E-006
   601.08282404673980      -0.52034544491462653       0.35955627068787310        4.1311982119592060E-008   2.6710793277439039E-006
   638.14779348954426      -0.53797556820619941       0.35954002842361421        4.1093415834141059E-008   2.7121727435780449E-006
   677.43666109891694      -0.55651107278838363       0.35952291327408220        4.0874217757950703E-008   2.7530469613359957E-006
   719.08286076485194      -0.57599726988932576       0.35950487926862429        4.0654688755405306E-008   2.7937016500914011E-006
   763.22783241074308      -0.59648175681360749       0.35948587805330906        4.0435104650078707E-008   2.8341367547414797E-006
   810.02150235538772      -0.61801446826470208       0.35946585883587567        4.0215639883018806E-008   2.8743523946244986E-006
   859.62279249671099      -0.64064777737704692       0.35944476828605454        3.9996450473470785E-008   2.9143488450979694E-006
   912.20016004651370      -0.66443660504330115       0.35942255042953924        3.9777691043094798E-008   2.9541265361410639E-006
   967.93216964930457      -0.68943853456258364       0.35939914653859473        3.9559514066966989E-008   2.9936860502080311E-006
   1027.0080998282629      -0.71571393245073056       0.35937449501878638        3.9342065140176191E-008   3.0330281153482072E-006
   1089.6285858179588      -0.74332607677421958       0.35934853129084465        3.9125476988014773E-008   3.0721535923362219E-006
   1156.0063009670364      -0.77234129466423806       0.35932118766641857        3.8909862836564988E-008   3.1110634551727869E-006
   1226.3666790250586      -0.80282911093570530       0.35929239321623291        3.8695309443443174E-008   3.1497587646162303E-006
   1300.9486797665622      -0.83486240998203143       0.35926207362894619        3.8481870089650607E-008   3.1882406347058809E-006
   1380.0056005525560      -0.86851761333262878       0.35923015105882250        3.8269557873600763E-008   3.2265101925794816E-006
   1463.8059365857093      -0.90387487544177147       0.35919654396018330        3.8058339683768777E-008   3.2645685322632505E-006
   1552.6342927808519      -0.94101830042344481       0.35916116690649369        3.7848131239780927E-008   3.3024166635030316E-006
   1646.7923503477032      -0.98003618255776137       0.35912393039188167        3.7638793579372422E-008   3.3400554570824041E-006
   1746.5998913685655       -1.0210207503645914       0.35908474111352845        3.7429770296430937E-008   3.3774852273788352E-006
   1852.3958848506795       -1.0640699101461299       0.35904350034880717        3.7221414632390629E-008   3.4147066420112260E-006
   1964.5396379417205       -1.1092863046230428       0.35900010490336542        3.7013241880708948E-008   3.4517198838919347E-006
   2083.4120162182239       -1.1567779638306095       0.35895444654859665        3.6804833665755622E-008   3.4885247175576902E-006
   2209.4167371913172       -1.2066587681864220       0.35890641164626563        3.6595787185986281E-008   3.5251205047436765E-006
   2342.9817414227964       -1.2590488961484561       0.35885588079779024        3.6385673656692677E-008   3.5615061784003691E-006
   2484.5606459081641       -1.3140753151280338       0.35880272846350053        3.6174043339817476E-008   3.5976802217401865E-006
   2634.6342846626540       -1.3718723210316965       0.35874682254830520        3.5960437446550796E-008   3.6336406591867373E-006
   2793.7123417424132       -1.4325821298815840       0.35868802395231680        3.5744401461290124E-008   3.6693850606480276E-006
   2962.3350822469583       -1.4963555250731739       0.35862618608520114        3.5525498897585298E-008   3.7049105595456131E-006
   3141.0751871817761       -1.5633529613211579       0.35856115395737009        3.5303581090385739E-008   3.7402141406359988E-006
   3330.5396984126828       -1.6337442201734991       0.35849276470043251        3.5077836467733597E-008   3.7752919771037324E-006
   3531.3720803174438       -1.7077102664219452       0.35842084597935564        3.4848139717204220E-008   3.8101401168209367E-006
   3744.2544051364907       -1.7854438891542774       0.35834521561364990        3.4614281530497689E-008   3.8447543983514348E-006
   3969.9096694446803       -1.8671506514222795       0.35826568093516126        3.4376104370579856E-008   3.8791305027220149E-006
   4209.1042496113614       -1.9530499550602376       0.35818203807508031        3.4133532853409196E-008   3.9132640355754237E-006
   4462.6505045880431       -2.0433761901434351       0.35809407121595516        3.3886580416526079E-008   3.9471506159919495E-006
   4731.4095348633255       -2.1383795259316658       0.35800155224733571        3.3635105428111674E-008   3.9807857214200608E-006
   5016.2941069551252       -2.2383285133077444       0.35790423871973265        3.3379744106185410E-008   4.0141654655262463E-006
   5318.2717533724335       -2.3435103181205741       0.35780187417785636        3.3120598654920952E-008   4.0472860641811673E-006
   5638.3680585747798       -2.4542326188107504       0.35769418695514099        3.2858031742873850E-008   4.0801440959240415E-006
   5977.6701420892668       -2.5708252888486456       0.35758088927181392        3.2592506652240119E-008   4.1127366025762814E-006
   6337.3303506146231       -2.6936427202685662       0.35746167581798877        3.2324816022292829E-008   4.1450614185985744E-006
   6718.5701716515005       -2.8230642087141402       0.35733622434062495        3.2055127658505346E-008   4.1771165462570795E-006
   7122.6843819505912       -2.9594975020140333       0.35720419329617847        3.1784305633717113E-008   4.2089008518907969E-006
   7551.0454448676273       -3.1033805835468522       0.35706522137678853        3.1513077250418091E-008   4.2404139291412149E-006
   8005.1081715596856       -3.2551834137052538       0.35691892724992441        3.1241923755885560E-008   4.2716558528971007E-006
   8486.4146618532668       -3.4154124658978602       0.35676490680556294        3.0972059358731314E-008   4.3026279122558316E-006
   8996.5995415644629       -3.5846117691766368       0.35660273400360459        3.0704026653509507E-008   4.3333319389093408E-006
   9537.3955140583312       -3.7633673826645828       0.35643195867457561        3.0438788062243869E-008   4.3637707269715844E-006
   10110.639244901831       -3.9523087154464633       0.35625210763246357        3.0176572118028418E-008   4.3939472990896128E-006
   10718.277599595942       -4.1521143460303636       0.35606268180966777        2.9918176799626962E-008   4.4238654758892401E-006
   11362.374255571698       -4.3635144747637389       0.35586315697580673        2.9663831133147510E-008   4.4535293070223874E-006
   12045.116710906001       -4.5872983633419366       0.35565298015280794        2.9414440329401328E-008   4.4829437473517892E-006
   12768.823713560361       -4.8243177614077215       0.35543157031719091        2.9170349560389909E-008   4.5121140969121790E-006
   13535.953136373984       -5.0754903536691174       0.35519831956312464        2.8931236120200366E-008   4.5410453330323789E-006
   14349.110324556425       -5.3418076951606643       0.35495259064928142        2.8697039989271062E-008   4.5697423730216501E-006
   15211.056944029811       -5.6243451226713210       0.35469371345961886        2.8468178023840385E-008   4.5982105510454909E-006
   16124.720360671601       -5.9242680097116089       0.35442098564904873        2.8244576330420942E-008   4.6264551273759116E-006
   17093.203582311897       -6.2428347904173975       0.35413367698447379        2.8024964622554674E-008   4.6544800919984663E-006
   18093.203582311897       -6.5726195741744826       0.35383884783810660        2.7814617205897277E-008   4.6822947092043639E-006
   19093.203582311897       -6.9033945568801558       0.35354580162873206        2.7618088303189621E-008   4.7099127975075533E-006
   20093.203582311897       -7.2352849917791406       0.35325446000976662        2.7433880634591953E-008   4.7373466781421453E-006
   21093.203582311897       -7.5684038029856433       0.35296475298180341        2.7260435629094110E-008   4.7646071137712395E-006
   22093.203582311897       -7.9028535252786094       0.35267661761489788        2.7096431026925329E-008   4.7917035447981646E-006
   23093.203582311897       -8.2387281786009279       0.35238999675391003        2.6940756355736617E-008   4.8186443011539012E-006
   24093.203582311897       -8.5761147708902836       0.35210483799799785        2.6792479190549150E-008   4.8454367803444504E-006
   25093.203582311897       -8.9150945086680196       0.35182109289448160        2.6650815712971705E-008   4.8720875960574219E-006
   26093.203582311897       -9.2557437771647635       0.35153871630021055        2.6515105783181086E-008   4.8986027018406026E-006
   27093.203582311897       -9.5981349377978304       0.35125766587408058        2.6384792005259903E-008   4.9249874938458629E-006
   28093.203582311897       -9.9423369802201638       0.35097790167243342        2.6259402233043949E-008   4.9512468960789070E-006
   29093.203582311897       -10.288416058063307       0.35069938582531207        2.6138535006512589E-008   4.9773854310854192E-006
   30093.203582311897       -10.636437848030406       0.35042208075669290        2.6022048808940332E-008   5.0034074798943592E-006
   31093.203582311897       -10.986461645120965       0.35014595397326154        2.5909219310488934E-008   5.0293166992048481E-006
   32093.203582311897       -11.338547612227469       0.34987097232652004        2.5800017662307127E-008   5.0551167168671552E-006
   33093.203582311893       -11.692754427199562       0.34959710398346744        2.5694234021262827E-008   5.0808109508884180E-006
   34093.203582311893       -12.049139473378920       0.34932431833113775        2.5591673598167928E-008   5.1064026244865858E-006
   35093.203582311893       -12.407759041281885       0.34905258586634763        2.5492165344760228E-008   5.1318947898313463E-006
   36093.203582311893       -12.768668495688470       0.34878187810754530        2.5395558113553683E-008   5.1572903479449004E-006
   37093.203582311893       -13.131922416786027       0.34851216752229031        2.5301717220493803E-008   5.1825920651653938E-006
   38093.203582311893       -13.497574720431251       0.34824342746676940        2.5210521711998127E-008   5.2078025868773917E-006
   39093.203582311893       -13.865678761461783       0.34797563213465460        2.5121862154019174E-008   5.2329244490314109E-006
   40093.203582311893       -14.236287423205216       0.34770875651322131        2.5035638824596090E-008   5.2579600878560073E-006
   41093.203582311893       -14.609453195673382       0.34744277634514764        2.4951760229170872E-008   5.2829118480851781E-006
   42093.203582311893       -14.985228244393483       0.34717766809481093        2.4870141878072819E-008   5.3077819899632510E-006
   43093.203582311893       -15.363664471447956       0.34691340891816991        2.4790705278252932E-008   5.3325726952415036E-006
   44093.203582311893       -15.744813569957328       0.34664997663555469        2.4713377099476752E-008   5.3572860723409805E-006
