 #              _____________________  _______________________             #
 #              ___  __ \__  __ \_  / / /_  /___  ____/_  ___/             #
 #              __  / / /_  /_/ /  / / /_  __/_  __/  _____ \              #
 #              _  /_/ /_  _, _// /_/ / / /_ _  /___  ____/ /              #
 #              /_____/ /_/ |_| \____/  \__/ /_____/  /____/               #
 #                                                                         #
  
 #        time                      T            heat flux [W.L-2]   in    x              directions   cumulative flux
 #-----------------------------------------------------------------------------------------------

   0.0000000000000000        25.000000000000000       -0.0000000000000000        0.0000000000000000     
   1.0000000000000000        24.999999999999996       -6.0396132539608516E-013   6.0396132539608516E-013
   2.0600000000000001        24.999999999754323        2.3210233734971553E-009   2.3216273348225513E-009
   3.1836000000000002        24.999999998625658        1.0270966299685824E-008   1.2592593634508376E-008
   4.3746160000000005        24.999999995727837        2.5506494694127468E-008   3.8099088328635844E-008
   5.6370929600000004        24.999999990188172        4.7406132352989516E-008   8.5505220681625360E-008
   6.9753185376000006        24.999999981333850        7.4057737720067962E-008   1.5956295840169332E-007
   8.3938376498560014        24.999999968749840        1.0341388190227008E-007   2.6297684030396340E-007
   9.8974679088473625        24.999999952248597        1.3390064168561366E-007   3.9687748198957706E-007
   11.491315983378204        24.999999931805867        1.6454261952958404E-007   5.6142010151916111E-007
   13.180794942380897        24.999999907496804        1.9485181468326118E-007   7.5627191620242229E-007
   14.971642638923752        24.999999879445856        2.2466213778216115E-007   9.8093405398458344E-007
   16.869941197259177        24.999999847792104        2.5399291558869663E-007   1.2349269695732801E-006
   18.882137669094728        24.999999812667046        2.8295588094806590E-007   1.5178828505213460E-006
   21.015065929240414        24.999999774181244        3.1169296477173702E-007   1.8295758152930830E-006
   23.275969884994840        24.999999732416871        3.4035394946840825E-007   2.1699297647614912E-006
   25.672528078094530        24.999999687424072        3.6906929068436511E-007   2.5389990554458564E-006
   28.212879762780204        24.999999639219777        3.9795192918745670E-007   2.9369509846333131E-006
   30.905652548547017        24.999999587788096        4.2709245917649241E-007   3.3640434438098055E-006
   33.759991701459839        24.999999533081738        4.5655550451328963E-007   3.8205989483230951E-006
   36.785591203547433        24.999999475023998        4.8638273852930070E-007   4.3069816868523958E-006
   39.992726675760281        24.999999413511059        5.1659711175489065E-007   4.8235787986072864E-006
   43.392290276305900        24.999999348414331        5.4720104003536107E-007   5.3707798386426475E-006
   46.995827692884255        24.999999279582671        5.7818123622155326E-007   5.9489610748642008E-006
   50.815577354457311        24.999999206844340        6.0951052205382439E-007   6.5584715969180252E-006
   54.864511995724754        24.999999130008629        6.4115205589132529E-007   7.1996236528093505E-006
   59.156382715468240        24.999999048867103        6.7305450102139730E-007   7.8726781538307478E-006
   63.705765678396340        24.999998963194471        7.0516229300210398E-007   8.5778404468328517E-006
   68.528111619100116        24.999998872749060        7.3741141193295334E-007   9.3152518587658051E-006
   73.639798316246129        24.999998777272985        7.6973179830019944E-007   1.0084983657066005E-005
   79.058186215220900        24.999998676492041        8.0205097674479475E-007   1.0887034633810799E-005
   84.801677388134152        24.999998570115320        8.3429103625576317E-007   1.1721325670066562E-005
   90.889778031422210        24.999998457834678        8.6637466978345401E-007   1.2587700339850016E-005
   97.343164713307544        24.999998339324005        8.9821973858761339E-007   1.3485920078437630E-005
   104.18375459610600        24.999998214238424        9.2974470788931285E-007   1.4415664786326943E-005
   111.43477987187237        24.999998082213359        9.6086925083227470E-007   1.5376534037159217E-005
   119.12086666418472        24.999997942863565        9.9151002075359429E-007   1.6368044057912812E-005
   127.26811866403581        24.999997795782072        1.0215903145649463E-006   1.7389634372477758E-005
   135.90420578387796        24.999997640539078        1.0510322212553547E-006   1.8440666593733113E-005
   145.05845813091065        24.999997476680811        1.0797608496204703E-006   1.9520427443353583E-005
   154.76196561876529        24.999997303728350        1.1077037243012455E-006   2.0628131167654828E-005
   165.04768355589121        24.999997121176389        1.1347938055905615E-006   2.1762924973245390E-005
   175.95054456924470        24.999996928505237        1.1609507666321406E-006   2.2923875739877531E-005
   187.50757724339940        24.999996725146321        1.1861371618238081E-006   2.4110012901701339E-005
   199.75803187800338        24.999996510505408        1.2102980306849531E-006   2.5320310932386292E-005
   212.74351379068358        24.999996283957646        1.2333796206576153E-006   2.6553690553043907E-005
   226.50812461812461        24.999996044845417        1.2553396544490170E-006   2.7809030207492924E-005
   241.09861209521210        24.999995792476348        1.2761394785343327E-006   2.9085169686027257E-005
   256.56452882092486        24.999995526121481        1.2957482908859674E-006   3.0380917976913224E-005
   272.95840055018039        24.999995245013359        1.3141358934376512E-006   3.1695053870350876E-005
   290.33590458319122        24.999994948344145        1.3312871871562493E-006   3.3026341057507125E-005
   308.75605885818271        24.999994635263512        1.3471943205445314E-006   3.4373535378051656E-005
   328.28142238967371        24.999994304876473        1.3618633332157515E-006   3.5735398711267408E-005
   348.97830773305412        24.999993956241049        1.3753286509654572E-006   3.7110727362232865E-005
   370.91700619703738        24.999993588365729        1.3876869076057119E-006   3.8498414269838577E-005
   394.17202656885962        24.999993200206656        1.3991609648655867E-006   3.9897575234704163E-005
   418.82234816299120        24.999992790664358        1.4102509027225096E-006   4.1307826137426673E-005
   444.95168905277069        24.999992358579547        1.4220317723356857E-006   4.2729857909762359E-005
   472.64879039593694        24.999991902727256        1.4368046663548739E-006   4.4166662576117233E-005
   502.00771781969320        24.999991421807348        1.4593759090075764E-006   4.5626038485124809E-005
   533.12818088887479        24.999990914427617        1.4996238917319715E-006   4.7125662376856781E-005
   566.11587174220733        24.999990379071722        1.5774364570120269E-006   4.8703098833868808E-005
   601.08282404673980        24.999989814036500        1.7320602196946311E-006   5.0435159053563439E-005
   638.14779348954426        24.999989217308858        2.0393623856307386E-006   5.2474521439194177E-005
   677.43666109891694        24.999988586306756        2.6429299282426655E-006   5.5117451367436843E-005
   719.08286076485194        24.999987917467678        3.8086767517597764E-006   5.8926128119196619E-005
   763.22783241074308        24.999987205338805        6.0184595085388537E-006   6.4944587627735473E-005
   810.02150235538772        24.999986440978926        1.0126212472982843E-005   7.5070800100718316E-005
   859.62279249671099        24.999985609061170        1.7611566605069129E-005   9.2682366705787445E-005
   912.20016004651370        24.999984682757521        3.0980576077865862E-005   1.2366294278365331E-004
   967.93216964930457        24.999983614919078        5.4381179630524912E-005   1.7804412241417822E-004
   1027.0080998282629        24.999982323228004        9.4521130584723778E-005   2.7256525299890200E-004
   1089.6285858179588        24.999980665796031        1.6199631616586885E-004   4.3456156916477084E-004
   1156.0063009670364        24.999978402026244        2.7315335429989318E-004   7.0771492346466403E-004
   1226.3666790250586        24.999975131359371        4.5261695373000066E-004   1.1603318771946647E-003
   1300.9486797665622        24.999970199747963        7.3660237916328697E-004   1.8969342563579517E-003
   1380.0056005525560        24.999962560365191        1.1770991777382278E-003   3.0740334340961795E-003
   1463.8059365857093        24.999950571284977        1.8469470995086112E-003   4.9209805336047907E-003
   1552.6342927808519        24.999931708930070        2.8457249492674919E-003   7.7667054828722826E-003
   1646.7923503477032        24.999902172396730        4.3062387824122084E-003   1.2072944265284491E-002
   1746.5998913685655        24.999856350911635        6.4012349984921002E-003   1.8474179263776591E-002
   1852.3958848506795        24.999786125398199        9.3497912304485453E-003   2.7823970494225136E-002
   1964.5396379417205        24.999679976065259        1.3422678489618534E-002   4.1246648983843670E-002
   2083.4120162182239        24.999521872298235        1.8945865735879863E-002   6.0192514719723533E-002
   2209.4167371913172        24.999289928671864        2.6301286809484736E-002   8.6493801529208270E-002
   2342.9817414227964        24.998954822881778        3.5924031403311574E-002  0.12241783293251984     
   2484.5606459081641        24.998477987001507        4.8295274179608327E-002  0.17071310711212817     
   2634.6342846626540        24.997809602361247        6.3930520440251826E-002  0.23464362755238000     
   2793.7123417424132        24.996886449316793        8.3363108282341614E-002  0.31800673583472161     
   2962.3350822469583        24.995629684616663       0.10712333426763365       0.42513007010235526     
   3141.0751871817761        24.993942639060144       0.13571401659770999       0.56084408670006525     
   3330.5396984126828        24.991708744512394       0.16958373181140018       0.73042781851146543     
   3531.3720803174438        24.988789710478798       0.20909928377186304       0.93952710228332847     
   3744.2544051364907        24.985024074088500       0.25451918391443229        1.1940462861977608     
   3969.9096694446803        24.980226243430799       0.30596996450249492        1.5000162507002557     
   4209.1042496113614        24.974186141488673       0.36342703577915358        1.8634432864794093     
   4462.6505045880431        24.966669537481540       0.42670152749263224        2.2901448139720415     
   4731.4095348633255        24.957419125142497       0.49543416130820361        2.7855789752802451     
   5016.2941069551252        24.946156375584145       0.56909669857837741        3.3546756738586225     
   5318.2717533724335        24.932584156893615       0.64700102850107299        4.0016767023596955     
   5638.3680585747798        24.916390077915430       0.72831540776512327        4.7299921101248188     
   5977.6701420892668        24.897250479829882       0.81208694755179778        5.5420790576766166     
   6337.3303506146231        24.874834970164649       0.89726907012156687        6.4393481277981834     
   6718.5701716515005        24.848811369382386       0.98275245587696958        7.4221005836751530     
   7122.6843819505912        24.818850924984964        1.0673977977320348        8.4894983814071878     
   7551.0454448676273        24.784633637625753        1.1500687797428100        9.6395671611499978     
   8005.1081715596856        24.745853543096409        1.2296637436071478        10.869230904757146     
   8486.4146618532668        24.702223801261361        1.3051446752099238        12.174375579967069     
   8996.5995415644629        24.653481452094788        1.3755625452065345        13.549938125173604     
   9537.3955140583312        24.599391718635815        1.4400781657824169        14.990016290956021     
   10110.639244901831        24.539751753532606        1.4979781900427369        16.487994480998758     
   10718.277599595942        24.474393755200232        1.5486859204499126        18.036680401448670     
   11362.374255571698        24.403187402482544        1.5917670525211847        19.628447453969855     
   12045.116710906001        24.326041588826559        1.6269305175630322        21.255377971532887     
   12768.823713560361        24.242905451498306        1.6540251164401809        22.909403087973068     
   13535.953136373984        24.153768718784363        1.6730324218873349        24.582435509860403     
   14349.110324556425        24.058661434160470        1.6840563289732557        26.266491838833659     
   15211.056944029811        23.957653134994747        1.6873100408690433        27.953801879702702     
   16124.720360671601        23.850851560926653        1.6831015449691833        29.636903424671885     
   17093.203582311897        23.738401005382396        1.6718178045432808        31.308721229215166     
   18093.203582311897        23.623494484673220        1.6544879633041276        32.963209192519294     
   19093.203582311897        23.510096016248614        1.6327710673764528        34.595980259895747     
   20093.203582311897        23.398438154253071        1.6077096403260427        36.203689900221789     
   21093.203582311897        23.288694902539181        1.5801423897481470        37.783832289969936     
   22093.203582311897        23.180993535423116        1.5507422252003167        39.334574515170253     
   23093.203582311897        23.075423935554355        1.5200475925747980        40.854622107745051     
   24093.203582311897        22.972046148032327        1.4884881593132349        42.343110267058286     
   25093.203582311897        22.870896479636702        1.4564057643562123        43.799516031414498     
   26093.203582311897        22.771992415875840        1.4240714412697386        45.223587472684237     
   27093.203582311897        22.675336580139199        1.3916992117851734        46.615286684469410     
   28093.203582311897        22.580919918264492        1.3594572396742421        47.974743924143652     
   29093.203582311897        22.488724257659626        1.3274768371072909        49.302220761250943     
   30093.203582311897        22.398724352884887        1.2958598598420323        50.598080621092976     
   31093.203582311897        22.310889528533338        1.2646845043022381        51.862765125395214     
   32093.203582311897        22.225185008791488        1.2340098239141639        53.096774949309378     
   33093.203582311893        22.141572984162643        1.2038795084821174        54.300654457791495     
   34093.203582311893        22.060013461504099        1.1743250076028389        55.474979465394334     
   35093.203582311893        21.980464937750934        1.1453680690334167        56.620347534427751     
   36093.203582311893        21.902884933036010        1.1170227633097696        57.737370297737520     
   37093.203582311893        21.827230412430605        1.0892970876160746        58.826667385353595     
   38093.203582311893        21.753458119286623        1.0621942387564687        59.888861624110064     
   39093.203582311893        21.681524838060433        1.0357136286254232        60.924575252735487     
   40093.203582311893        21.611387600629122        1.0098516979477878        61.934426950683275     
   41093.203582311893        21.543003847199266       0.98460257014302499        62.919029520826300     
   42093.203582311893        21.476331550696731       0.95995857722694922        63.878988098053249     
   43093.203582311893        21.411329311794518       0.93591068263357613        64.814898780686832     
   44093.203582311893        21.347956430362292       0.91244882074949629        65.727347601436321     
   45093.203582311893        21.286172958013090       0.88956216913736341        66.616909770573685     
   46093.203582311893        21.225939735528616       0.86723936627844722        67.484149136852125     
   47093.203582311893        21.167218427178330       0.84546855617578132        68.329617693027899     
   48093.203582311893        21.109971540643478       0.82423759694247423        69.153855289970380     
   49093.203582311893        21.054162426855854       0.80353434634556464        69.957389636315952     
   50093.203582311893        20.999755272428914       0.78334677319944035        70.740736409515392     
   51093.203582311893        20.946715091443185       0.76366296399008604        71.504399373505478     
   52093.203582311893        20.895007718673284       0.74447110252279458        72.248870476028273     
   53093.203582311893        20.844599802945499       0.72575946816282766        72.974629944191094     
   54093.203582311893        20.795458799103187       0.70751645587847634        73.682146400069570     
   55093.203582311893        20.747552957872493       0.68973060650073137        74.371877006570301     
   56093.203582311893        20.700851313639625       0.67239063677096311        75.044267643341271     
   57093.203582311893        20.655323670520684       0.65548546397167229        75.699753107312944     
   58093.203582311893        20.610940587194257       0.63900422371133914        76.338757331024283     
   59093.203582311893        20.567673360924918       0.62293628159959979        76.961693612623890     
   60093.203582311893        20.525494011116429       0.60727124001161314        77.568964852635503     
   61093.203582311893        20.484375262645294       0.59199894126308550        78.160963793898588     
   62093.203582311893        20.444290529153861       0.57710946819732101        78.738073262095909     
   63093.203582311893        20.405213896427998       0.56259314295616036        79.300666405052070     
   64093.203582311893        20.367120105946654       0.54844052452004632        79.849106929572116     
   65093.203582311893        20.329984538663393       0.53464240537294927        80.383749334945065     
   66093.203582311893        20.293783199061210       0.52118980755789579        80.904939142502968     
   67093.203582311893        20.258492690940756       0.50807410180713219        81.413013244310093     
   68093.203582311893        20.224090198603360       0.49528692889186487        81.908300173201951     
   69093.203582311893        20.190553479354485       0.48282003962022202        82.391120212822173     
   70093.203582311893        20.157860857903639       0.47066526359735406        82.861785476419527     
   71093.203582311893        20.125991217280379       0.45881456157196965        83.320600037991497     
   72093.203582311893        20.094923985322460       0.44726008893078983        83.767860126922287     
   73093.203582311893        20.064639118712339       0.43599423091855272        84.203854357840839     
   74093.203582311893        20.035117086593019       0.42500960869393367        84.628863966534766     
   75093.203582311893        20.006338854917498       0.41429906872821221        85.043163035262978     
   76093.203582311893        19.978285871915439       0.40385566677130669        85.447018702034285     
   77093.203582311893        19.950940054636707       0.39367265230218607        85.840691354336471     
   78093.203582311893        19.924283776383291       0.38374345575871160        86.224434810095175     
   79093.203582311893        19.898299854826575       0.37406167867494844        86.598496488770124     
   80093.203582311893        19.872971540648958       0.36462108610869848        86.963117574878822     
