 #              _____________________  _______________________             #
 #              ___  __ \__  __ \_  / / /_  /___  ____/_  ___/             #
 #              __  / / /_  /_/ /  / / /_  __/_  __/  _____ \              #
 #              _  /_/ /_  _, _// /_/ / / /_ _  /___  ____/ /              #
 #              /_____/ /_/ |_| \____/  \__/ /_____/  /____/               #
 #                                                                         #
  
 #        time                      h  [L]                   theta [-]       Darcian flow [L.T^{-1}]   in    x              directions   cumulative flux
 #-----------------------------------------------------------------------------------------------

   0.0000000000000000      -0.20000000000000001       0.35984249177530825        1.2548996820743664E-024   1.2548996820743664E-024
   1.0000000000000000      -0.20037385649552636       0.35984217196615903        7.4057035526142845E-009   7.4057035526142862E-009
   2.0600000000000001      -0.20133620074355932       0.35984134851969252        2.2848880641905205E-008   3.0254584194519490E-008
   3.1836000000000002      -0.20287069408537867       0.35984003483525623        4.2563905998175974E-008   7.2818490192695457E-008
   4.3746160000000005      -0.20486924966809911       0.35983832264258553        6.2950550884223611E-008   1.3576904107691908E-007
   5.6370929600000004      -0.20722555604372581       0.35983630219929430        8.1891625433135240E-008   2.1766066651005432E-007
   6.9753185376000006      -0.20986363213097603       0.35983403791517204        9.8454256065701333E-008   3.1611492257575567E-007
   8.3938376498560014      -0.21273682732042806       0.35983156917569264        1.1238009651973826E-007   4.2849501909549390E-007
   9.8974679088473625      -0.21581945455044194       0.35982891745496864        1.2374391769943633E-007   5.5223893679493024E-007
   11.491315983378204      -0.21909906549821151       0.35982609289215789        1.3277028931515661E-007   6.8500922611008688E-007
   13.180794942380897      -0.22257106599248361       0.35982309887993896        1.3974155563932105E-007   8.2475078174940795E-007
   14.971642638923752      -0.22623539819553948       0.35981993489390296        1.4495179774895862E-007   9.6970257949836660E-007
   16.869941197259177      -0.23009464912971275       0.35981659810605610        1.4868348453341367E-007   1.1183860640317803E-006
   18.882137669094728      -0.23415303797019019       0.35981308424799385        1.5119574809585209E-007   1.2695818121276324E-006
   21.015065929240414      -0.23841590537643723       0.35980938804462109        1.5271899268340178E-007   1.4223008048110341E-006
   23.275969884994840      -0.24288936738032341       0.35980550350801688        1.5345230240533504E-007   1.5757531072163691E-006
   25.672528078094530      -0.24758049093510748       0.35980142377955021        1.5356655545508167E-007   1.7293196626714507E-006
   28.212879762780204      -0.25249700335174946       0.35979714137657781        1.5320359866125615E-007   1.8825232613327069E-006
   30.905652548547017      -0.25764734848790671       0.35979264813848350        1.5247971497767110E-007   2.0350029763103781E-006
   33.759991701459839      -0.26304068720078616       0.35978793522079616        1.5148867677679640E-007   2.1864916530871744E-006
   36.785591203547433      -0.26868690526832312       0.35978299308257050        1.5030493472699008E-007   2.3367965878141645E-006
   39.992726675760281      -0.27459662689241249       0.35977781146862936        1.4898673980572862E-007   2.4857833276198932E-006
   43.392290276305900      -0.28078123385069736       0.35977237938656403        1.4757905933520707E-007   2.6333623869551002E-006
   46.995827692884255      -0.28725289071216920       0.35976668507807952        1.4611619549186296E-007   2.7794785824469630E-006
   50.815577354457311      -0.29402457625244088       0.35976071598450815        1.4462405502048944E-007   2.9241026374674523E-006
   54.864511995724754      -0.30111012078826033       0.35975445870667855        1.4312205291120600E-007   3.0672246903786585E-006
   59.156382715468240      -0.30852424878422419       0.35974789895965326        1.4162465971950632E-007   3.2088493500981649E-006
   63.705765678396340      -0.31628262582715033       0.35974102152308196        1.4014262159168194E-007   3.3489919716898467E-006
   68.528111619100116      -0.32440190892354542       0.35973381018805578        1.3868389418568136E-007   3.4876758658755281E-006
   73.639798316246129      -0.33289979904197003       0.35972624770139128        1.3725433743195355E-007   3.6249302033074816E-006
   79.058186215220900      -0.34179509487784598       0.35971831570824320        1.3585821872273896E-007   3.7607884220302206E-006
   84.801677388134152      -0.35110774694617003       0.35970999469384574        1.3449856906737807E-007   3.8952869910975991E-006
   90.889778031422210      -0.36085891129243708       0.35970126392503904        1.3317743137400851E-007   4.0284644224716080E-006
   97.343164713307544      -0.37107100234078433       0.35969210139204555        1.3189603349195599E-007   4.1603604559635637E-006
   104.18375459610600      -0.38176774465908009       0.35968248375074480        1.3065491188694334E-007   4.2910153678505071E-006
   111.43477987187237      -0.39297422370239998       0.35967238626545056        1.2945400544810299E-007   4.4204693732986105E-006
   119.12086666418472      -0.40471693588706892       0.35966178275194149        1.2829273331127503E-007   4.5487621066098857E-006
   127.26811866403581      -0.41702383863442516       0.35965064552024201        1.2717006588968467E-007   4.6759321724995705E-006
   135.90420578387796      -0.42992440129232029       0.35963894531640422        1.2608459455105525E-007   4.8020167670506258E-006
   145.05845813091065      -0.44344965807813724       0.35962665126232468        1.2503460250344874E-007   4.9270513695540746E-006
   154.76196561876529      -0.45763226437479732       0.35961373079245168        1.2401813734612947E-007   5.0510695069002045E-006
   165.04768355589121      -0.47250655783781581       0.35960014958611053        1.2303308429168043E-007   5.1741025911918851E-006
   175.95054456924470      -0.48810890214286273       0.35958587124095837        1.2207796203181767E-007   5.2961805532237025E-006
   187.50757724339940      -0.50447701451868865       0.35957085787625492        1.2114965547528796E-007   5.4173302086989903E-006
   199.75803187800338      -0.52165069164659150       0.35955506945869775        1.2024591790923708E-007   5.5375761266082274E-006
   212.74351379068358      -0.53967175791553290       0.35953846383778693        1.1936476942259484E-007   5.6569408960308220E-006
   226.50812461812461      -0.55858415622107582       0.35952099665150533        1.1850433124513783E-007   5.7754452272759596E-006
   241.09861209521210      -0.57843406148358500       0.35950262121146614        1.1766285903252669E-007   5.8931080863084863E-006
   256.56452882092486      -0.59927001121265144       0.35948328837267846        1.1683878502511120E-007   6.0099468713335973E-006
   272.95840055018039      -0.62114305010779525       0.35946294639073023        1.1603074075391508E-007   6.1259776120875120E-006
   290.33590458319122      -0.64410688808085803       0.35944154076702889        1.1523756375467564E-007   6.2412151758421881E-006
   308.75605885818271      -0.66821807152409740       0.35941901408237925        1.1445829297810020E-007   6.3556734688202886E-006
   328.28142238967371      -0.69353616766180037       0.35939530581920937        1.1369215635395450E-007   6.4693656251742427E-006
   348.97830773305412      -0.72012396180365057       0.35937035217282354        1.1293855319645327E-007   6.5823041783706957E-006
   370.91700619703738      -0.74804766732780237       0.35934408585211164        1.1219703368022140E-007   6.6945012120509175E-006
   394.17202656885962      -0.77737689005703547       0.35931643611385405        1.1146676834238092E-007   6.8059679803932986E-006
   418.82234816299120      -0.80818555228674582       0.35928732789477913        1.1074826324501934E-007   6.9167162436383180E-006
   444.95168905277069      -0.84055155942413073       0.35925668212967804        1.1004132000693741E-007   7.0267575636452558E-006
   472.64879039593694      -0.87455717750851025       0.35922441540475697        1.0934577817992536E-007   7.1361033418251815E-006
   502.00771781969320      -0.91028933128118672       0.35919043968917042        1.0866159927988060E-007   7.2447649411050620E-006
   533.12818088887479      -0.94783989295943694       0.35915466207990226        1.0798881463125254E-007   7.3527537557363149E-006
   566.11587174220733      -0.98730597992501445       0.35911698454377639        1.0732749520478103E-007   7.4600812509410963E-006
   601.08282404673980       -1.0287902648770926       0.35907730365424750        1.0667773620084035E-007   7.5667589871419370E-006
   638.14779348954426       -1.0724016248285966       0.35903551001104905        1.0604013622432187E-007   7.6727991233662587E-006
   677.43666109891694       -1.1182546065965009       0.35899148880290804        1.0541406885426850E-007   7.7782131922205275E-006
   719.08286076485194       -1.1664705337101671       0.35894511880984498        1.0479980408841883E-007   7.8830129963089467E-006
   763.22783241074308       -1.2171777111247057       0.35889627227986265        1.0419754968013168E-007   7.9872105459890787E-006
   810.02150235538772       -1.2705117822496024       0.35884481467425122        1.0360741993047864E-007   8.0908179659195580E-006
   859.62279249671099       -1.3266157790343014       0.35879060472596047        1.0302903545044729E-007   8.1938470013700059E-006
   912.20016004651370       -1.3856415350022866       0.35873349319928372        1.0246310853252444E-007   8.2963101099025312E-006
   967.93216964930457       -1.4477493128705485       0.35867332339334462        1.0190942576642311E-007   8.3982195356689542E-006
   1027.0080998282629       -1.5131085243765283       0.35860993061515978        1.0136780004148742E-007   8.4995873357104415E-006
   1089.6285858179588       -1.5818987643367426       0.35854314137193299        1.0083847605036021E-007   8.6004258117608012E-006
   1156.0063009670364       -1.6543093016906136       0.35847277409032430        1.0032047992071280E-007   8.7007462916815133E-006
   1226.3666790250586       -1.7305407946140188       0.35839863771033736        9.9813636853666790E-008   8.8005599285351804E-006
   1300.9486797665622       -1.8108058287872102       0.35832053145696274        9.9317531793009949E-008   8.8998774603281898E-006
   1380.0056005525560       -1.8953290908375959       0.35823824500983109        9.8830970741218406E-008   8.9987084310694081E-006
   1463.8059365857093       -1.9843501551176932       0.35815155617565736        9.8354142252076139E-008   9.0970625733214848E-006
   1552.6342927808519       -2.0781236386679947       0.35806023117513636        9.7886386167141231E-008   9.1949489594886263E-006
   1646.7923503477032       -2.1769192072688117       0.35796402513720538        9.7425821042849134E-008   9.2923747805314756E-006
   1746.5998913685655       -2.2810238611017288       0.35786268044097669        9.6971104735906058E-008   9.3893458852673824E-006
   1852.3958848506795       -2.3907449276002128       0.35775592444820953        9.6521932653904129E-008   9.4858678179212870E-006
   1964.5396379417205       -2.5064110404124431       0.35764346928915458        9.6077394339811123E-008   9.5819452122610985E-006
   2083.4120162182239       -2.6283715957288183       0.35752501322861607        9.5634765060565043E-008   9.6775799773216641E-006
   2209.4167371913172       -2.7570029097330875       0.35740023563618650        9.5193832175480264E-008   9.7727738094971448E-006
   2342.9817414227964       -2.8927096215291535       0.35726879672438155        9.4753893614588391E-008   9.8675277031117332E-006
   2484.5606459081641       -3.0359236482892848       0.35713033980391468        9.4311976469337803E-008   9.9618396795810711E-006
   2634.6342846626540       -3.1871143141626610       0.35698448290740942        9.3869197968041323E-008   1.0055708877549113E-005
   2793.7123417424132       -3.3467844683639143       0.35683082418237361        9.3422997974659985E-008   1.0149131875523773E-005
   2962.3350822469583       -3.5154778286301633       0.35666893666597882        9.2972689282511618E-008   1.0242104564806285E-005
   3141.0751871817761       -3.6937849119024060       0.35649836474304719        9.2518785897289937E-008   1.0334623350703574E-005
   3330.5396984126828       -3.8823442499851404       0.35631862545429105        9.2060336376180269E-008   1.0426683687079754E-005
   3520.0042096435895       -4.0705683721858463       0.35613989420977754        9.1624747661125319E-008   1.0518308434740879E-005
   3709.4687208744963       -4.2585583165506797       0.35596210040144410        9.1207217976336613E-008   1.0609515652717216E-005
   3898.9332321054030       -4.4464065754594895       0.35578517904035256        9.0806025842027708E-008   1.0700321678559243E-005
   4088.3977433363098       -4.6341987912475480       0.35560906963183048        9.0420556479422306E-008   1.0790742235038666E-005
   4277.8622545672170       -4.8220109434152638       0.35543371916992189        9.0048738331855561E-008   1.0880790973370522E-005
   4467.3267657981232       -5.0099141850914037       0.35525907787135924        8.9690296113734415E-008   1.0970481269484256E-005
   4656.7912770290295       -5.1979740976572177       0.35508510010769978        8.9344590208106987E-008   1.1059825859692363E-005
   4846.2557882599358       -5.3862499852008749       0.35491174522193891        8.9010416215364256E-008   1.1148836275907727E-005
   5047.0881701646967       -5.5861372884348031       0.35472861118192256        8.8669204852913285E-008   1.1237505480760641E-005
   5247.9205520694577       -5.7863966246918617       0.35454608811623795        8.8340872421379776E-008   1.1325846353182021E-005
   5448.7529339742186       -5.9870841710403910       0.35436413887033569        8.8024253432715198E-008   1.1413870606614736E-005
   5649.5853158789796       -6.1882514727083393       0.35418273002596190        8.7718184998738134E-008   1.1501588791613474E-005
   5850.4176977837406       -6.3899493493595410       0.35400182845936973        8.7423280034918309E-008   1.1589012071648392E-005
   6051.2500796885015       -6.5922237090983167       0.35382140518816441        8.7138548144414801E-008   1.1676150619792807E-005
   6252.0824615932625       -6.7951174366742100       0.35364143370125034        8.6863447454709132E-008   1.1763014067247515E-005
   6452.9148434980234       -6.9986707826155241       0.35346188964588737        8.6597551185554311E-008   1.1849611618433069E-005
   6653.7472254027844       -7.2029230023282862       0.35328274941886983        8.6341018239666243E-008   1.1935952636672736E-005
   6854.5796073075453       -7.4079081015606540       0.35310399391969804        8.6092353788354698E-008   1.2022044990461090E-005
   7055.4119892123063       -7.6136597711168488       0.35292560422123270        8.5851670392549267E-008   1.2107896660853639E-005
   7256.2443711170672       -7.8202099824418791       0.35274756282865560        8.5618721417256054E-008   1.2193515382270894E-005
   7457.0767530218282       -8.0275890300576798       0.35256985365255861        8.5393181757418659E-008   1.2278908564028313E-005
   7657.9091349265891       -8.2358257000550026       0.35239246186993456        8.5174730671451309E-008   1.2364083294699765E-005
   7858.7415168313501       -8.4449459225006560       0.35221537506485612        8.4962516052019254E-008   1.2449045810751784E-005
   8071.6238416503966       -8.6676430582000474       0.35202795183444513        8.4746268961959677E-008   1.2533792079713744E-005
   8284.5061664694440       -8.8913957702337640       0.35184084054374815        8.4536367166823779E-008   1.2618328446880567E-005
   8497.3884912884914       -9.1162316983503082       0.35165402916164812        8.4332944502331923E-008   1.2702661391382899E-005
   8710.2708161075388       -9.3421781643107238       0.35146750592973064        8.4135835222694852E-008   1.2786797226605594E-005
   8923.1531409265863       -9.5692614230466653       0.35128125999627702        8.3944777272532507E-008   1.2870742003878127E-005
   9136.0354657456337       -9.7975067580863673       0.35109528133724799        8.3759501961388384E-008   1.2954501505839515E-005
   9348.9177905646811       -10.026938576521678       0.35090956067784501        8.3579750807965238E-008   1.3038081256647481E-005
   9561.8001153837286       -10.257578822209448       0.35072409076253835        8.3404753623926364E-008   1.3121486010271407E-005
   9774.6824402027760       -10.489452289803264       0.35053886207801288        8.3235287569650157E-008   1.3204721297841058E-005
   9987.5647650218234       -10.722581269516168       0.35035386718160078        8.3070748945383401E-008   1.3287792046786442E-005
   10200.447089840871       -10.956987311948192       0.35016909926397433        8.2910814984521569E-008   1.3370702861770964E-005
   10413.329414659918       -11.192691465391874       0.34998455195847200        8.2755267831888003E-008   1.3453458129602852E-005
   10626.211739478966       -11.429714308739984       0.34980021931501576        8.2603915605706113E-008   1.3536062045208557E-005
   10839.094064298013       -11.668075984502623       0.34961609577377178        8.2456576290861829E-008   1.3618518621499420E-005
   11051.976389117061       -11.907796235107238       0.34943217613625799        8.2313075279492230E-008   1.3700831696778912E-005
   11264.858713936108       -12.148896234402441       0.34924845417330957        8.2173747440917297E-008   1.3783005444219829E-005
   11477.741038755155       -12.391393029271596       0.34906492686285667        8.2037486079581523E-008   1.3865042930299412E-005
   11690.623363574203       -12.635305271441039       0.34888158999702507        8.1904462823236614E-008   1.3946947393122648E-005
   11903.505688393250       -12.880651530240810       0.34869843948578405        8.1774643613460123E-008   1.4028722036736109E-005
   12116.388013212298       -13.127450095150387       0.34851547150687096        8.1647908048078041E-008   1.4110369944784186E-005
   12329.270338031345       -13.375719012739566       0.34833268247706112        8.1524122307479950E-008   1.4191894067091666E-005
   12542.152662850393       -13.625476122277174       0.34815006902502027        8.1403156253686925E-008   1.4273297223345352E-005
   12755.034987669440       -13.876739082187642       0.34796762797139053        8.1284886227961487E-008   1.4354582109573314E-005
   12967.917312488487       -14.129525391706276       0.34778535631269225        8.1169194979276396E-008   1.4435751304552591E-005
   13180.799637307535       -14.383852409831581       0.34760325120740965        8.1055971182553939E-008   1.4516807275735146E-005
   13393.681962126582       -14.639737372453375       0.34742130996357035        8.0945108994768936E-008   1.4597752384729915E-005
   13606.564286945630       -14.897195483135654       0.34723953138182584        8.0836047739253307E-008   1.4678588432469169E-005
   13832.219551253820       -15.171892507901569       0.34704698261392597        8.0724146927619174E-008   1.4759312579396788E-005
   14057.874815562011       -15.448400728755779       0.34685460868924317        8.0614111424080825E-008   1.4839926690820869E-005
   14283.530079870201       -15.726739408557865       0.34666240761321720        8.0506110345157967E-008   1.4920432801166026E-005
   14509.185344178391       -16.006928517288998       0.34647037697199895        8.0400154973548377E-008   1.5000832956139574E-005
   14734.840608486582       -16.288988013918228       0.34627851443939589        8.0296193606295680E-008   1.5081129149745870E-005
