 #              _____________________  _______________________             #
 #              ___  __ \__  __ \_  / / /_  /___  ____/_  ___/             #
 #              __  / / /_  /_/ /  / / /_  __/_  __/  _____ \              #
 #              _  /_/ /_  _, _// /_/ / / /_ _  /___  ____/ /              #
 #              /_____/ /_/ |_| \____/  \__/ /_____/  /____/               #
 #                                                                         #
  
 #        time                      T            heat flux [W.L-2]   in    x              directions   cumulative flux
 #-----------------------------------------------------------------------------------------------

   0.0000000000000000        25.000000000000000       -0.0000000000000000        0.0000000000000000     
   1.0000000000000000        24.941732158728982        9.8475228005492266        9.8475228005492266     
   2.0600000000000001        24.881391979041464        19.980865931444480        29.828388731993705     
   3.1836000000000002        24.818985990536788        30.389908682903208        60.218297414896909     
   4.3746160000000005        24.754529391941556        41.062172426814421        101.28046984171132     
   5.6370929600000004        24.688047687932123        51.982627981681325        153.26309782339266     
   6.9753185376000006        24.619577341842223        63.133563186594699        216.39666100998735     
   8.3938376498560014        24.549166425578711        74.494461851017746        290.89112286100510     
   9.8974679088473625        24.476875205463582        86.041904091823469        376.93302695282858     
   11.491315983378204        24.402776635864480        97.749493934599542        474.68252088742815     
   13.180794942380897        24.326956736009556        109.58781993724330        584.27034082467139     
   14.971642638923752        24.249514825331527        121.52445474568485        705.79479557035620     
   16.869941197259177        24.170563592412780        133.52399955050291        839.31879512085914     
   18.882137669094728        24.090228972806305        145.54817930417047        984.86697442502964     
   21.015065929240414        24.008649811965633        157.55599423678709        1142.4229686618166     
   23.275969884994840        23.925978149192172        169.50378158639296        1311.9267502482096     
   25.672528078094530        23.842375921659340        181.34592924486662        1493.2726794930763     
   28.212879762780204        23.758016237527194        193.03480221147279        1686.3074817045492     
   30.905652548547017        23.673081234691775        204.52129397941155        1890.8287756839609     
   33.759991701459839        23.587760421149813        215.75531175928407        2106.5840874432452     
   36.785591203547433        23.502248741093407        226.68632811441350        2333.2704155576585     
   39.992726675760281        23.416744382919514        237.26399373994369        2570.5344092976020     
   43.392290276305900        23.331446356274650        247.43880330283784        2817.9732126004396     
   46.995827692884255        23.246551876875717        257.16280327609292        3075.1360158765324     
   50.815577354457311        23.162253609821320        266.39032765509830        3341.5263435316306     
   54.864511995724754        23.078736833878612        275.07874448371086        3616.6050880153416     
   59.156382715468240        22.996176600125320        283.18919341883395        3899.7942814341754     
   63.705765678396340        22.914734967574113        290.68729232486146        4190.4815737590370     
   68.528111619100116        22.834558405175873        297.54378932793855        4488.0253630869756     
   73.639798316246129        22.755775453047058        303.73513608993261        4791.7604991769085     
   79.058186215220900        22.678494735106490        309.24395848270410        5101.0044576596129     
   84.801677388134152        22.602803409886285        314.05940251721637        5415.0638601768296     
   90.889778031422210        22.528766135667624        318.17733641246775        5733.2411965892970     
   97.343164713307544        22.456424610163072        321.60039409763300        6054.8415906869304     
   104.18375459610600        22.385797723988745        324.33785114666171        6379.1794418335921     
   111.43477987187237        22.316882341852612        326.40533095162772        6705.5847727852197     
   119.12086666418472        22.249654696908760        327.82434653168684        7033.4091193169061     
   127.26811866403581        22.184072353713979        328.62169131699062        7362.0308106338971     
   135.90420578387796        22.120076665661088        328.82870001645853        7690.8595106503553     
   145.05845813091065        22.057595625868569        328.48040769378440        8019.3399183441397     
   154.76196561876529        21.996546988531033        327.61464084949631        8346.9545591936367     
   165.04768355589121        21.936841522739353        326.27107810374753        8673.2256372973843     
   175.95054456924470        21.878383425433093        324.49083814288178        8997.7164754402656     
   187.50757724339940        21.821081792847309        322.31403035263537        9320.0305057929017     
   199.75803187800338        21.764845046651729        319.78054345398812        9639.8110492468895     
   212.74351379068358        21.709586166602115        316.92880937430067        9956.7398586211893     
   226.50812461812461        21.655224641842619        313.79524109279305        10270.535099713983     
   241.09861209521210        21.601687909796695        310.41381299945448        10580.948912713438     
   256.56452882092486        21.548912273448956        306.81578619901683        10887.764698912455     
   272.95840055018039        21.496843320244960        303.02957230558746        11190.794271218043     
   290.33590458319122        21.445435894453080        299.08072156973861        11489.874992787782     
   308.75605885818271        21.394653696546200        294.99201531709235        11784.867008104873     
   328.28142238967371        21.344468596506665        290.78363904365636        12075.650647148530     
   348.97830773305412        21.294859752513858        286.47341122511682        12362.124058373647     
   370.91700619703738        21.245812622853940        282.07704379910228        12644.201102172749     
   394.17202656885962        21.197325091480110        277.60729775663128        12921.808399929379     
   418.82234816299120        21.149384800400629        273.07775060335030        13194.886150532730     
   444.95168905277069        21.101990731989659        268.49927805412381        13463.385428586853     
   472.64879039593694        21.055144404511754        263.88166543417395        13727.267094021026     
   502.00771781969320        21.008849226083690        259.23378510504875        13986.500879126075     
   533.12818088887479        20.963109964827936        254.56374287872092        14241.064622004797     
   566.11587174220733        20.917932326429426        249.87899539012136        14490.943617394918     
   601.08282404673980        20.873322625485649        245.18644192653693        14736.130059321455     
   638.14779348954426        20.829275748751844        240.49420307123378        14976.624262392688     
   677.43666109891694        20.785811469989259        235.80613386047995        15212.430396253169     
   719.08286076485194        20.742935163815272        231.12810618305619        15443.558502436224     
   763.22783241074308        20.700652511993106        226.46552367177208        15670.024026107996     
   810.02150235538772        20.658969212973179        221.82339361875722        15891.847419726753     
   859.62279249671099        20.617904188904060        217.20452240252459        16109.051942129277     
   912.20016004651370        20.577447634078592        212.61565140437168        16321.667593533650     
   967.93216964930457        20.537606595348691        208.06040756888339        16529.728001102532     
   1027.0080998282629        20.498386899437389        203.54233656740436        16733.270337669936     
   1089.6285858179588        20.459778123513715        199.06685765110194        16932.337195321037     
   1156.0063009670364        20.421802053761418        194.63442027675353        17126.971615597791     
   1226.3666790250586        20.384459374436002        190.24853888049282        17317.220154478284     
   1300.9486797665622        20.347751448045742        185.91219920805202        17503.132353686335     
   1380.0056005525560        20.311702582070751        181.62512633702093        17684.757480023356     
   1463.8059365857093        20.276287416350574        177.39366080654912        17862.151140829905     
   1552.6342927808519        20.241490723129431        173.22156214224924        18035.372702972156     
   1646.7923503477032        20.207338772231775        169.10685917233337        18204.479562144490     
   1746.5998913685655        20.173849385737860        165.04940402855760        18369.528966173049     
   1852.3958848506795        20.140995923451001        161.05454386689675        18530.583510039945     
   1964.5396379417205        20.108755980233017        157.12576733918809        18687.709277379134     
   2083.4120162182239        20.077180827736537        153.25725155886457        18840.966528937999     
   2209.4167371913172        20.046238952401005        149.45447123954995        18990.421000177550     
   2342.9817414227964        20.015898771885976        145.72124920796546        19136.142249385517     
   2484.5606459081641        19.986227548909369        142.04942447154968        19278.191673857065     
   2634.6342846626540        19.957143270364895        138.44971508381659        19416.641388940883     
   2793.7123417424132        19.928697772786549        134.91493237507237        19551.556321315955     
   2962.3350822469583        19.900896992557122        131.44519063516051        19683.001511951115     
   3141.0751871817761        19.873692530956660        128.04601182879966        19811.047523779915     
   3330.5396984126828        19.847092593306023        124.71513600297983        19935.762659782893     
   3520.0042096435895        19.822458068178403        121.62456871108387        20057.387228493975     
   3709.4687208744963        19.799564400209810        118.74695308784965        20176.134181581823     
   3898.9332321054030        19.778219682858836        116.05922218920725        20292.193403771031     
   4088.3977433363098        19.758233558390426        113.54431484912024        20405.737718620152     
   4277.8622545672170        19.739510360744877        111.17983415065929        20516.917552770810     
   4467.3267657981232        19.721913950718463        108.95340656253116        20625.870959333341     
   4656.7912770290295        19.705334930254587        106.85254609812313        20732.723505431462     
   4846.2557882599358        19.689706523766606        104.86328970609358        20837.586795137555     
   5047.0881701646967        19.674031988625515        102.87726121616541        20940.464056353721     
   5247.9205520694577        19.659229791731327        100.99502029949127        21041.459076653213     
   5448.7529339742186        19.645213634381374        99.209697343066864        21140.668773996280     
   5649.5853158789796        19.631942522557985        97.510843220343432        21238.179617216625     
   5850.4176977837406        19.619310438248082        95.896828735284757        21334.076445951909     
   6051.2500796885015        19.607279719544913        94.358816232223489        21428.435262184132     
   6252.0824615932625        19.595807112755391        92.890690093743103        21521.325952277875     
   6452.9148434980234        19.584851790580455        91.487241367775468        21612.813193645652     
   6653.7472254027844        19.574348925343688        90.146569854098658        21702.959763499752     
   6854.5796073075453        19.564311890336690        88.858936444170681        21791.818699943924     
   7055.4119892123063        19.554695387665340        87.622948158665679        21879.441648102591     
   7256.2443711170672        19.545468097688040        86.435487523690028        21965.877135626281     
   7457.0767530218282        19.536603513526074        85.293413683072643        22051.170549309354     
   7657.9091349265891        19.528077920656511        84.193809258365491        22135.364358567720     
   7858.7415168313501        19.519897467353797        83.131222431941111        22218.495580999661     
   8071.6238416503966        19.511507055221202        82.052736153551393        22300.548317153211     
   8284.5061664694440        19.503445541727920        81.010562898360092        22381.558880051569     
   8497.3884912884914        19.495680211047912        80.004665176008487        22461.563545227578     
   8710.2708161075388        19.488190285728759        79.033144022747763        22540.596689250327     
   8923.1531409265863        19.480958449393938        78.093962532183525        22618.690651782512     
   9136.0354657456337        19.473969129935998        77.185197141057273        22695.875848923570     
   9348.9177905646811        19.467208044347739        76.305063114720326        22772.180912038290     
   9561.8001153837286        19.460689954846998        75.449158188735836        22847.630070227024     
   9774.6824402027760        19.454355010434742        74.621448078959858        22922.251518305984     
   9987.5647650218234        19.448206485534012        73.818083849449579        22996.069602155432     
   10200.447089840871        19.442237124088830        73.037389844335124        23069.106991999768     
   10413.329414659918        19.436438071451118        72.278096866166067        23141.385088865933     
   10626.211739478966        19.430800549896848        71.539061702902217        23212.924150568833     
   10839.094064298013        19.425316199967106        70.819219742392022        23283.743370311226     
   11051.976389117061        19.419977144609753        70.117574157931713        23353.860944469157     
   11264.858713936108        19.414747921312063        69.435950475661741        23423.296894944819     
   11477.741038755155        19.409669322204330        68.767960217143710        23492.064855161963     
   11690.623363574203        19.404720171603671        68.115211952397104        23560.180067114361     
   11903.505688393250        19.399891117023060        67.477279526259409        23627.657346640619     
   12116.388013212298        19.395175487313772        66.853472111196353        23694.510818751816     
   12329.270338031345        19.390567537864229        66.243101715710552        23760.753920467527     
   12542.152662850393        19.386062038309237        65.645519708784306        23826.399440176312     
   12755.034987669440        19.381654140696437        65.060118508540384        23891.459558684852     
   12967.917312488487        19.377339319763163        64.486328647686875        23955.945887332538     
   13180.799637307535        19.373113337035008        63.923615688574642        24019.869503021113     
   13393.681962126582        19.368972214946012        63.371477513224590        24083.240980534338     
   13606.564286945630        19.364939774474763        62.826732150562215        24146.067712684900     
   13832.219551253820        19.360730670880901        62.263129393415156        24208.330842078314     
   14057.874815562011        19.356600283899702        61.710030309185953        24270.040872387501     
   14283.530079870201        19.352547774640342        61.166756995757744        24331.207629383258     
   14509.185344178391        19.348570476026367        60.632860622920667        24391.840490006180     
   14734.840608486582        19.344665466971275        60.107942286038835        24451.948432292218     
   14960.495872794772        19.340829862281829        59.591626781418995        24511.540059073635     
   15186.151137102963        19.337032771136485        59.086275973091865        24570.626335046727     
   15411.806401411153        19.333319340585984        58.586117115579469        24629.212452162308     
   15637.461665719344        19.329672279548202        58.093255741281119        24687.305707903590     
   15863.116930027534        19.326086067191337        57.607714984124264        24744.913422887716     
   16088.772194335725        19.322557579592296        57.129238114088906        24802.042661001804     
   16314.427458643915        19.319084373039729        56.657548314944485        24858.700209316747     
   16540.082722952106        19.315664302358794        56.192383378909078        24914.892592695654     
   16765.737987260294        19.312295409149257        55.733498256781878        24970.626090952435     
   16991.393251568483        19.308975877593550        55.280663599721457        25025.906754552158     
   17217.048515876671        19.305704011831178        54.833664189028454        25080.740418741185     
   17442.703780184860        19.302478221888158        54.392297651057810        25135.132716392243     
   17668.359044493049        19.299297013630742        53.956373406634079        25189.089089798876     
   17894.014308801237        19.296158980884833        53.525711783245193        25242.614801582120     
   18119.669573109426        19.293062798858365        53.100143241759369        25295.714944823878     
   18345.324837417615        19.290007218429167        52.679507687519042        25348.394452511398     
   18570.980101725803        19.287018514190006        52.261001336669629        25400.655453848067     
   18796.635366033992        19.284049228245141        51.849759623303008        25452.505213471370     
   19022.290630342181        19.281112412999573        51.443323793587993        25503.948537264958     
   19247.945894650369        19.278210169702827        51.041244631220394        25554.989781896180     
   19473.601158958558        19.275342452563411        50.643371990818615        25605.633153887000     
   19699.256423266746        19.272508718340301        50.249599583755959        25655.882753470756     
   19924.911687574935        19.269708293336969        49.859828360187841        25705.742581830946     
   20150.566951883124        19.266940475214295        49.473962267010407        25755.216544097955     
   20376.222216191312        19.264204567820919        49.091908344343366        25804.308452442299     
   20601.877480499501        19.261499894900737        48.713577103063194        25853.022029545362     
   20827.532744807690        19.258825805735253        48.338882719447184        25901.360912264809     
   21053.188009115878        19.256181677257793        47.967743072730784        25949.328655337540     
   21278.843273424067        19.253566914480523        47.600079686607899        25996.928735024147     
   21504.498537732255        19.250980950073679        47.235817616666999        26044.164552640814     
   21730.153802040444        19.248423243509880        46.874885309204892        26091.039437950018     
   21955.809066348633        19.245893279990334        46.517214446341441        26137.556652396361     
   22181.464330656821        19.243390569271874        46.162739786221067        26183.719392182582     
   22407.119594965010        19.240914644461014        45.811399003553063        26229.530791186135     
   22632.774859273199        19.238465060813862        45.463132533571546        26274.993923719707     
   22858.430123581387        19.236041394564278        45.117883421155646        26320.111807140864     
