 #              _____________________  _______________________             #
 #              ___  __ \__  __ \_  / / /_  /___  ____/_  ___/             #
 #              __  / / /_  /_/ /  / / /_  __/_  __/  _____ \              #
 #              _  /_/ /_  _, _// /_/ / / /_ _  /___  ____/ /              #
 #              /_____/ /_/ |_| \____/  \__/ /_____/  /____/               #
 #                                                                         #
  
 #        time                      h  [L]                   theta [-]       Darcian flow [L.T^{-1}]   in    x              directions   cumulative flux
 #-----------------------------------------------------------------------------------------------

   0.0000000000000000      -0.28000000000000003       0.35977306608771875        1.6806575933321869E-021   1.6806575933321869E-021
   1.0000000000000000      -0.28763054198394594       0.35976635247485900        1.4171660781436863E-007   1.4171660781437030E-007
   2.0600000000000001      -0.29480836691366874       0.35976002438963522        2.1295837841739636E-007   3.5467498623176666E-007
   3.1836000000000002      -0.30104202740146518       0.35975451889541604        2.4797844426412737E-007   6.0265343049589397E-007
   4.3746160000000005      -0.30660586052990002       0.35974959746655355        2.6756267060915554E-007   8.7021610110504946E-007
   5.6370929600000004      -0.31171508482066035       0.35974507203648293        2.7970081804400601E-007   1.1499169191490554E-006
   6.9753185376000006      -0.31650822776776660       0.35974082134056073        2.8765927858205393E-007   1.4375761977311092E-006
   8.3938376498560014      -0.32107933284799633       0.35973676291566314        2.9295939433040471E-007   1.7305355920615140E-006
   9.8974679088473625      -0.32549800560425957       0.35973283559011399        2.9640175748192988E-007   2.0269373495434439E-006
   11.491315983378204      -0.32981999800571016       0.35972899022580684        2.9845591606636900E-007   2.3253932656098131E-006
   13.180794942380897      -0.33409268783341561       0.35972518492554240        2.9942654771061453E-007   2.6248198133204275E-006
   14.971642638923752      -0.33835788002409800       0.35972138258677755        2.9953049499685410E-007   2.9243503083172817E-006
   16.869941197259177      -0.34265320953638001       0.35971754968185771        2.9893420798640926E-007   3.2232845163036908E-006
   18.882137669094728      -0.34701283822391210       0.35971365565726732        2.9777232988927552E-007   3.5210568461929664E-006
   21.015065929240414      -0.35146782551641886       0.35970967261803810        2.9615705273601104E-007   3.8172138989289773E-006
   23.275969884994840      -0.35604612808161684       0.35970557534047765        2.9418238120918682E-007   4.1113962801381640E-006
   25.672528078094530      -0.36077355105405767       0.35970134043090018        2.9192871500162534E-007   4.4033249951397892E-006
   28.212879762780204      -0.36567330758262095       0.35969694672726416        2.8946347258307895E-007   4.6927884677228681E-006
   30.905652548547017      -0.37076649727729633       0.35969237487776740        2.8684241271120773E-007   4.9796308804340755E-006
   33.759991701459839      -0.37607243757497338       0.35968760704921460        2.8411166250305998E-007   5.2637425429371357E-006
   36.785591203547433      -0.38160898774517449       0.35968262664047823        2.8130906181326381E-007   5.5450516047503999E-006
   39.992726675760281      -0.38739287205277440       0.35967741799527209        2.7846546281448976E-007   5.8235170675648901E-006
   43.392290276305900      -0.39343999008966235       0.35967196612503022        2.7560592940136425E-007   6.0991229969662543E-006
   46.995827692884255      -0.39976570435769387       0.35966625645086370        2.7275079674669679E-007   6.3718737937129511E-006
   50.815577354457311      -0.40638509870037259       0.35966027457045058        2.6991657095301008E-007   6.6417903646659609E-006
   54.864511995724754      -0.41331320450449061       0.35965400605275744        2.6711666369971601E-007   6.9089070283656765E-006
   59.156382715468240      -0.42056519439396117       0.35964743626098550        2.6436196875455290E-007   7.1732689971202292E-006
   63.705765678396340      -0.42815654527963715       0.35964055020221608        2.6166129593930005E-007   7.4349302930595289E-006
   68.528111619100116      -0.43610317408819749       0.35963333240090484        2.5902168359610861E-007   7.6939519766556380E-006
   73.639798316246129      -0.44442155032830649       0.35962576679260860        2.5644861316470317E-007   7.9504005898203417E-006
   79.058186215220900      -0.45312878997036454       0.35961783663401931        2.5394614973426187E-007   8.2043467395546031E-006
   84.801677388134152      -0.46224273504733976       0.35960952442541810        2.5151703102474500E-007   8.4558637705793488E-006
   90.889778031422210      -0.47178202305840189       0.35960081184193204        2.4916272478232368E-007   8.7050264953616726E-006
   97.343164713307544      -0.48176614978864657       0.35959167967037686        2.4688347153884048E-007   8.9519099669005126E-006
   104.18375459610600      -0.49221552863651974       0.35958210774892041        2.4467832645389135E-007   9.1965882933544045E-006
   111.43477987187237      -0.50315154902675308       0.35957207490724796        2.4254521076832839E-007   9.4391335041227321E-006
   119.12086666418472      -0.51459663601597083       0.35956155890532387        2.4048098038157601E-007   9.6796144845043074E-006
   127.26811866403581      -0.52657431278419586       0.35955053636920603        2.3848151627524886E-007   9.9180960007795565E-006
   135.90420578387796      -0.53910926734800224       0.35953898272268708        2.3654183895218597E-007   1.0154637839731742E-005
   145.05845813091065      -0.55222742452145301       0.35952687211381157        2.3465624673742696E-007   1.0389294086469170E-005
   154.76196561876529      -0.56595602387897426       0.35951417733556296        2.3281847569846169E-007   1.0622112562167631E-005
   165.04768355589121      -0.58032370423215063       0.35950086974023676        2.3102187710783385E-007   1.0853134439275465E-005
   175.95054456924470      -0.59536113391152989       0.35948691864674553        2.2926288174291568E-007   1.1082397321018381E-005
   187.50757724339940      -0.61109946162801931       0.35947229276966025        2.2752915855809025E-007   1.1309926479576471E-005
   199.75803187800338      -0.62757212631033499       0.35945695853403570        2.2581589139334242E-007   1.1535742370969814E-005
   212.74351379068358      -0.64481438745064656       0.35944088050133177        2.2411717682181444E-007   1.1759859547791628E-005
   226.50812461812461      -0.66286340743027872       0.35942402128461093        2.2242734234041725E-007   1.1982286890132046E-005
   241.09861209521210      -0.68175839095775659       0.35940634141049288        2.2074135231096523E-007   1.2203028242443011E-005
   256.56452882092486      -0.70154072089988895       0.35938779918433456        2.1905495147729166E-007   1.2422083193920303E-005
   272.95840055018039      -0.72225409752574188       0.35936835055224581        2.1736475031785328E-007   1.2639447944238157E-005
   290.33590458319122      -0.74394468331699437       0.35934794895806971        2.1566827115328070E-007   1.2855116215391438E-005
   308.75605885818271      -0.76666125446614530       0.35932654519443086        2.1396395865467444E-007   1.3069080174046113E-005
   328.28142238967371      -0.79045536006725103       0.35930408724707985        2.1225115785426571E-007   1.3281331331900378E-005
   348.97830773305412      -0.81538149011835748       0.35928052013168021        2.1053006375747436E-007   1.3491861395657852E-005
   370.91700619703738      -0.84149725363050465       0.35925578572203781        2.0880164762606824E-007   1.3700663043283920E-005
   394.17202656885962      -0.86886304680015847       0.35922982306383106        2.0706454968276948E-007   1.3907727592966690E-005
   418.82234816299120      -0.89754390073689028       0.35920256662192790        2.0532632448208396E-007   1.4113053917448773E-005
   444.95168905277069      -0.92760786861743649       0.35917394781083212        2.0358747979095232E-007   1.4316641397239726E-005
   472.64879039593694      -0.95912702868043309       0.35914389404874913        2.0185089658178717E-007   1.4518492293821513E-005
   502.00771781969320      -0.99217769545172807       0.35911232856395270        2.0011986774681509E-007   1.4718612161568327E-005
   533.12818088887479       -1.0268406762921016       0.35907917016151220        1.9839785564976353E-007   1.4917010017218091E-005
   566.11587174220733       -1.0632015626070537       0.35904433296089727        1.9668838558918705E-007   1.5113698402807279E-005
   601.08282404673980       -1.1013510482353364       0.35900772611217291        1.9499496158685762E-007   1.5308693364394135E-005
   638.14779348954426       -1.1413858997719142       0.35896925289070147        1.9332380780301530E-007   1.5502017172197151E-005
   677.43666109891694       -1.1834073361998028       0.35892881228808510        1.9167319774038732E-007   1.5693690369937538E-005
   719.08286076485194       -1.2275237225289195       0.35888629646646786        1.9004838063502744E-007   1.5883738750572567E-005
   763.22783241074308       -1.2738499764093756       0.35884159137719907        1.8845231823545564E-007   1.6072191068808021E-005
   810.02150235538772       -1.3225081393976148       0.35879457627176331        1.8688759879070726E-007   1.6259078667598729E-005
   859.62279249671099       -1.3736272553388591       0.35874512389438035        1.8535409890546559E-007   1.6444432766504196E-005
   912.20016004651370       -1.4273460405507412       0.35869309798698190        1.8385809659912746E-007   1.6628290863103325E-005
   967.93216964930457       -1.4838110522551888       0.35863835516345666        1.8239938110352561E-007   1.6810690244206850E-005
   1027.0080998282629       -1.5431784813750120       0.35858074329821560        1.8097925917518964E-007   1.6991669503382038E-005
   1089.6285858179588       -1.6056154905952047       0.35852010037111132        1.7960110424648995E-007   1.7171270607628528E-005
   1156.0063009670364       -1.6712986149534586       0.35845625619068561        1.7826173589096535E-007   1.7349532343519492E-005
   1226.3666790250586       -1.7404173674379577       0.35838902909118314        1.7696351640510218E-007   1.7526495859924594E-005
   1300.9486797665622       -1.8131738696058795       0.35831822652103529        1.7570681806513615E-007   1.7702202677989732E-005
   1380.0056005525560       -1.8897829222348534       0.35824364524516628        1.7448891353646276E-007   1.7876691591526194E-005
   1463.8059365857093       -1.9704766376565179       0.35816506714909968        1.7331452111108654E-007   1.8050006112637281E-005
   1552.6342927808519       -2.0555025387313162       0.35808226145290811        1.7218334176652699E-007   1.8222189454403808E-005
   1646.7923503477032       -2.1451236953339543       0.35799498500218369        1.7109078179937078E-007   1.8393280236203178E-005
   1746.5998913685655       -2.2396226453231374       0.35790297893805745        1.7003579097296484E-007   1.8563316027176143E-005
   1852.3958848506795       -2.3393044703647989       0.35780596626863015        1.6902128289182665E-007   1.8732337310067969E-005
   1964.5396379417205       -2.4444961421417797       0.35770365316283392        1.6804691138955706E-007   1.8900384221457525E-005
   2083.4120162182239       -2.5555453995965367       0.35759573079543899        1.6710567067094616E-007   1.9067489892128473E-005
   2209.4167371913172       -2.6728306179104200       0.35748186662372922        1.6620137036528871E-007   1.9233691262493763E-005
   2342.9817414227964       -2.7967586002164846       0.35736170755299185        1.6533391789711362E-007   1.9399025180390876E-005
   2484.5606459081641       -2.9277628305884922       0.35723488278409288        1.6449526023115257E-007   1.9563520440622028E-005
   2634.6342846626540       -3.0663187535322249       0.35710099035505360        1.6369253531754367E-007   1.9727212975939570E-005
   2793.7123417424132       -3.2129323191491266       0.35695960978459867        1.6291765303921849E-007   1.9890130628978789E-005
   2962.3350822469583       -3.3681535312738178       0.35681029075198328        1.6217040990236715E-007   2.0052301038881157E-005
   3141.0751871817761       -3.5325801406930997       0.35665255163181597        1.6145275900228115E-007   2.0213753797883438E-005
   3330.5396984126828       -3.7068566347760505       0.35648588285125637        1.6076109289090394E-007   2.0374514890774343E-005
   3520.0042096435895       -3.8812100124266902       0.35631970460367168        1.6012912552844045E-007   2.0534644016302784E-005
   3709.4687208744963       -4.0557250078222484       0.35615396329200794        1.5954854998415771E-007   2.0694192566286940E-005
   3898.9332321054030       -4.2304783012344922       0.35598861101699708        1.5901258515321558E-007   2.0853205151440156E-005
   4088.3977433363098       -4.4055400958779583       0.35582360441566091        1.5851709253469704E-007   2.1011722243974851E-005
   4277.8622545672170       -4.5809700563782281       0.35565890872911882        1.5805414125007838E-007   2.1169776385224929E-005
   4467.3267657981232       -4.7568257061593426       0.35549449008162465        1.5762171749427645E-007   2.1327398102719204E-005
   4656.7912770290295       -4.9331587452594095       0.35533031912073065        1.5721643332009667E-007   2.1484614536039301E-005
   4846.2557882599358       -5.1100151057492118       0.35516637107009769        1.5683395883706527E-007   2.1641448494876367E-005
   5047.0881701646967       -5.2981250161279574       0.35499278307159221        1.5645653064231721E-007   2.1797905025518684E-005
   5247.9205520694577       -5.4869224104183392       0.35481939245229854        1.5609846411510862E-007   2.1954003489633794E-005
   5448.7529339742186       -5.6764521246029647       0.35464617673457005        1.5576003074049628E-007   2.2109763520374290E-005
   5649.5853158789796       -5.8667541444374676       0.35447311735265441        1.5543797948693618E-007   2.2265201499861224E-005
   5850.4176977837406       -6.0578701034865512       0.35430019380807998        1.5513366603856951E-007   2.2420335165899794E-005
   6051.2500796885015       -6.2498350076908205       0.35412739125055936        1.5484384538390387E-007   2.2575179011283698E-005
   6252.0824615932625       -6.4426828925216446       0.35395469536877566        1.5456725602609302E-007   2.2729746267309791E-005
   6452.9148434980234       -6.6364460975955470       0.35378209309628278        1.5430280771777706E-007   2.2884049075027567E-005
   6653.7472254027844       -6.8311568941509595       0.35360957120700481        1.5405083783823879E-007   2.3038099912865804E-005
   6854.5796073075453       -7.0268413027048657       0.35343712181191778        1.5380750857655276E-007   2.3191907421442357E-005
   7055.4119892123063       -7.2235286746153893       0.35326473389110796        1.5357376467978398E-007   2.3345481186122141E-005
   7256.2443711170672       -7.4212459015437480       0.35309239845704055        1.5334888934811265E-007   2.3498830075470254E-005
   7457.0767530218282       -7.6200185929489415       0.35292010752176750        1.5313220944108101E-007   2.3651962284911335E-005
   7657.9091349265891       -7.8198713470063659       0.35274785387222396        1.5292312818777639E-007   2.3804885413099112E-005
   7858.7415168313501       -8.0208261795824534       0.35257563242303563        1.5271981853808081E-007   2.3957605231637192E-005
   8071.6238416503966       -8.2351045519547412       0.35239307438286999        1.5251542030221559E-007   2.4110120651939406E-005
   8284.5061664694440       -8.4506742692210111       0.35221053907332411        1.5231545654408257E-007   2.4262436108483489E-005
   8497.3884912884914       -8.6675624768503070       0.35202801943628664        1.5212184850030024E-007   2.4414557956983788E-005
   8710.2708161075388       -8.8857942771150391       0.35184551010941206        1.5193423065770936E-007   2.4566492187641499E-005
   8923.1531409265863       -9.1053938270736445       0.35166300648954180        1.5175219843969949E-007   2.4718244386081199E-005
   9136.0354657456337       -9.3263846215607735       0.35148050449861518        1.5157538446919267E-007   2.4869819770550391E-005
   9348.9177905646811       -9.5487895907509390       0.35129800050765608        1.5140345489615152E-007   2.5021223225446543E-005
   9561.8001153837286       -9.7726293066010932       0.35111549279860915        1.5123486925289044E-007   2.5172458094699434E-005
   9774.6824402027760       -9.9979297171617176       0.35093297527417189        1.5107210163203705E-007   2.5323530196331471E-005
   9987.5647650218234       -10.224710435776029       0.35075044700895436        1.5091330737397407E-007   2.5474443503705444E-005
   10200.447089840871       -10.452992339141106       0.35056790604149968        1.5075823771370130E-007   2.5625201741419146E-005
   10413.329414659918       -10.682796251649442       0.35038535046147562        1.5060669950153158E-007   2.5775808440920676E-005
   10626.211739478966       -10.914142738214249       0.35020277858240628        1.5045850339741561E-007   2.5926266944318093E-005
   10839.094064298013       -11.147052089722411       0.35002018895628678        1.5031346670311461E-007   2.6076580411021209E-005
   11051.976389117061       -11.381544345004555       0.34983758035840740        1.5017141568139502E-007   2.6226751826702605E-005
   11264.858713936108       -11.617641392426988       0.34965495016870018        1.5003340980446311E-007   2.6376785236507069E-005
   11477.741038755155       -11.855358307404364       0.34947230106035554        1.4989657891973234E-007   2.6526681815426803E-005
   11690.623363574203       -12.094716776234945       0.34928963061991453        1.4976232554229408E-007   2.6676444140969096E-005
   11903.505688393250       -12.335736456955749       0.34910693805051601        1.4963052981019068E-007   2.6826074670779285E-005
   12116.388013212298       -12.578436531861328       0.34892422295985503        1.4950103646063905E-007   2.6975575707239925E-005
   12329.270338031345       -12.822836014619018       0.34874148512378178        1.4937370874487431E-007   2.7124949415984798E-005
   12542.152662850393       -13.068953824580248       0.34855872443118407        1.4924842443761252E-007   2.7274197840422410E-005
   12755.034987669440       -13.316808812259810       0.34837594086658913        1.4912507205884608E-007   2.7423322912481254E-005
   12967.917312488487       -13.566419774127102       0.34819313450092249        1.4900354863618972E-007   2.7572326461117443E-005
   13180.799637307535       -13.817805465155745       0.34801030548395390        1.4888375834468245E-007   2.7721210219462126E-005
   13393.681962126582       -14.070984610853497       0.34782745403714010        1.4876561161432458E-007   2.7869975831076450E-005
   13606.564286945630       -14.325973539272900       0.34764458214740823        1.4864783926834228E-007   2.8018623670344791E-005
   13832.219551253820       -14.598316490310069       0.34745067487028108        1.4852685007899358E-007   2.8167150520423785E-005
   14057.874815562011       -14.872738996228129       0.34725674405155188        1.4840683551970005E-007   2.8315557355943485E-005
   14283.530079870201       -15.149263611201281       0.34706279004302404        1.4828815206636925E-007   2.8463845508009853E-005
   14509.185344178391       -15.427912981803308       0.34686881321106289        1.4817081583501625E-007   2.8612016323844870E-005
   14734.840608486582       -15.708709641220965       0.34667481408173434        1.4805478668184792E-007   2.8760071110526717E-005
