 #              _____________________  _______________________             #
 #              ___  __ \__  __ \_  / / /_  /___  ____/_  ___/             #
 #              __  / / /_  /_/ /  / / /_  __/_  __/  _____ \              #
 #              _  /_/ /_  _, _// /_/ / / /_ _  /___  ____/ /              #
 #              /_____/ /_/ |_| \____/  \__/ /_____/  /____/               #
 #                                                                         #
  
 #        time                      h  [L]                   theta [-]       Darcian flow [L.T^{-1}]   in    x              directions   cumulative flux
 #-----------------------------------------------------------------------------------------------

   0.0000000000000000      -0.30000000000000004       0.35975543982609626        4.6973552605177779E-024   4.6973552605177779E-024
   1.0000000000000000      -0.31636379742641491       0.35974094949866281        3.0789496562737030E-007   3.0789496562737030E-007
   2.0600000000000001      -0.32485831047580827       0.35973340440785184        3.4260208936212751E-007   6.5049705498949782E-007
   3.1836000000000002      -0.33118630532984128       0.35972777378730392        3.5112878401982590E-007   1.0016258390093238E-006
   4.3746160000000005      -0.33648076042051289       0.35972305645771896        3.5430792664967067E-007   1.3559337656589946E-006
   5.6370929600000004      -0.34114872234726029       0.35971889261881873        3.5543737976223032E-007   1.7113711454212249E-006
   6.9753185376000006      -0.34539281242478803       0.35971510310276850        3.5545941705079846E-007   2.0668305624720235E-006
   8.3938376498560014      -0.34933507776064315       0.35971157990972374        3.5475468899950505E-007   2.4215852514715286E-006
   9.8974679088473625      -0.35305973821502978       0.35970824841693466        3.5350982900240654E-007   2.7750950804739351E-006
   11.491315983378204      -0.35663126068973794       0.35970505139727693        3.5182956132686243E-007   3.1269246418007977E-006
   13.180794942380897      -0.36010283275294269       0.35970194152841295        3.4977994731331989E-007   3.4767045891141175E-006
   14.971642638923752      -0.36352051372766780       0.35969887772704112        3.4740749371679181E-007   3.8241120828309096E-006
   16.869941197259177      -0.36692529171881955       0.35969582333694311        3.4474825492303084E-007   4.1688603377539402E-006
   18.882137669094728      -0.37035411398254608       0.35969274522554628        3.4183234663030720E-007   4.5106926843842472E-006
   21.015065929240414      -0.37384043785778970       0.35968961330378801        3.3868625339926612E-007   4.8493789377835129E-006
   23.275969884994840      -0.37741408021355249       0.35968640067231283        3.3532075432027316E-007   5.1846996921037859E-006
   25.672528078094530      -0.38110320590087859       0.35968308184173581        3.3178160178511501E-007   5.5164812938889012E-006
   28.212879762780204      -0.38493259909011934       0.35967963429188848        3.2808002053116296E-007   5.8445613144200639E-006
   30.905652548547017      -0.38892500322771317       0.35967603727173980        3.2423616886647338E-007   6.1687974832865373E-006
   33.759991701459839      -0.39310132545124143       0.35967227161810106        3.2027004733724141E-007   6.4890675306237788E-006
   36.785591203547433      -0.39748098705062535       0.35966831944173788        3.1620147121798692E-007   6.8052690018417657E-006
   39.992726675760281      -0.40208227349654080       0.35966416381259475        3.1205024401370889E-007   7.1173192458554743E-006
   43.392290276305900      -0.40692266467985305       0.35965978846163038        3.0783626747693576E-007   7.4251555133324100E-006
   46.995827692884255      -0.41201913476530100       0.35965517750889786        3.0357957133912087E-007   7.7287350846715311E-006
   50.815577354457311      -0.41738841537954197       0.35965031522364022        2.9930026049911949E-007   8.0280353451706499E-006
   54.864511995724754      -0.42304721957474672       0.35964518581882893        2.9501838357018681E-007   8.3230537287408369E-006
   59.156382715468240      -0.42901242708923526       0.35963977327981339        2.9075373190387353E-007   8.6138074606447106E-006
   63.705765678396340      -0.43530123375559715       0.35963406122464248        2.8652558257651299E-007   8.9003330432212237E-006
   68.528111619100116      -0.44193126947768835       0.35962803279220212        2.8235240217817906E-007   9.1826854453994021E-006
   73.639798316246129      -0.44892069008657154       0.35962167055349170        2.7825153048101634E-007   9.4609369758804191E-006
   79.058186215220900      -0.45628824871469431       0.35961495644104885        2.7423886412662630E-007   9.7351758400070456E-006
   84.801677388134152      -0.46405335223878352       0.35960787169159059        2.7032856034334716E-007   1.0005504400350392E-005
   90.889778031422210      -0.47223610797103877       0.35960039679724620        2.6653277940145546E-007   1.0272037179751847E-005
   97.343164713307544      -0.48085736524080025       0.35959251146122562        2.6286148210049833E-007   1.0534898661852345E-005
   104.18375459610600      -0.48993875589230895       0.35958419455429336        2.5932229517761469E-007   1.0794220957029961E-005
   111.43477987187237      -0.49950273708624959       0.35957542406898030        2.5592045331341646E-007   1.1050141410343377E-005
   119.12086666418472      -0.50957263916605822       0.35956617706900673        2.5265882164615501E-007   1.1302800231989532E-005
   127.26811866403581      -0.52017272074793997       0.35955642963192386        2.4953799769782241E-007   1.1552338229687355E-005
   135.90420578387796      -0.53132823261955764       0.35954615678348317        2.4655648672233653E-007   1.1798894716409691E-005
   145.05845813091065      -0.54306549148607663       0.35953533242273394        2.4371094006979067E-007   1.2042605656479482E-005
   154.76196561876529      -0.55541196408604343       0.35952392923731019        2.4099644256365655E-007   1.2283602099043138E-005
   165.04768355589121      -0.56839636172183583       0.35951191860880877        2.3840683238710777E-007   1.2522008931430246E-005
   175.95054456924470      -0.58204994527303300       0.35949926939554544        2.3595983291961523E-007   1.2757968764349861E-005
   187.50757724339940      -0.59640235880604142       0.35948595178527498        2.3360039186650916E-007   1.2991569156216370E-005
   199.75803187800338      -0.61148737221500971       0.35947193196888155        2.3134302329459400E-007   1.3222912179510964E-005
   212.74351379068358      -0.62733986095236371       0.35945717492748108        2.2918009170348077E-007   1.3452092271214445E-005
   226.50812461812461      -0.64399651721416173       0.35944164376527654        2.2710395720565115E-007   1.3679196228420097E-005
   241.09861209521210      -0.66149601646323553       0.35942529954604141        2.2510740630249537E-007   1.3904303634722592E-005
   256.56452882092486      -0.67987916750852562       0.35940810114453903        2.2318379645450258E-007   1.4127487431177095E-005
   272.95840055018039      -0.69918906323093377       0.35939000509716951        2.2132714222337952E-007   1.4348814573400474E-005
   290.33590458319122      -0.71947123429743132       0.35937096544981367        2.1953215387714260E-007   1.4568346727277616E-005
   308.75605885818271      -0.74077380703471396       0.35935093360194220        2.1779423587658387E-007   1.4786140963154200E-005
   328.28142238967371      -0.76314766668279488       0.35932985814603524        2.1610945361908650E-007   1.5002250416773287E-005
   348.97830773305412      -0.78664662750250225       0.35930768470113439        2.1447447729933054E-007   1.5216724894072617E-005
   370.91700619703738      -0.81132761146816934       0.35928435573913148        2.1288651148548203E-007   1.5429611405558100E-005
   394.17202656885962      -0.83725011668557803       0.35925981108528759        2.1133417186410179E-007   1.5640945577422202E-005
   418.82234816299120      -0.86447899486280866       0.35923398528601080        2.0983279400543855E-007   1.5850778371427641E-005
   444.95168905277069      -0.89308125190165488       0.35920681063675175        2.0837242486211144E-007   1.6059150796289751E-005
   472.64879039593694      -0.92312823174263015       0.35917821511768727        2.0695158677134451E-007   1.6266102383061095E-005
   502.00771781969320      -0.95469550250526514       0.35914812250537143        2.0556905946344577E-007   1.6471671442524541E-005
   533.12818088887479      -0.98786310822211965       0.35911645214166099        2.0422376273475463E-007   1.6675895205259296E-005
   566.11587174220733       -1.0227158597007246       0.35908311866909925        2.0291471767972747E-007   1.6878809922939022E-005
   601.08282404673980       -1.0593436528200153       0.35904803174442440        2.0164101874371003E-007   1.7080450941682733E-005
   638.14779348954426       -1.0978423406564710       0.35901109522549124        2.0040653334165921E-007   1.7280857475024393E-005
   677.43666109891694       -1.1383122053079822       0.35897220866782392        1.9920143812659073E-007   1.7480058913150985E-005
   719.08286076485194       -1.1808609530669740       0.35893126448862245        1.9802937873090518E-007   1.7678088291881889E-005
   763.22783241074308       -1.2256026011791847       0.35888814907909400        1.9688959028159741E-007   1.7874977882163488E-005
   810.02150235538772       -1.2726582728382207       0.35884274209678213        1.9578130060661861E-007   1.8070759182770107E-005
   859.62279249671099       -1.3221563500920717       0.35879491638738037        1.9470072927677962E-007   1.8265459912046888E-005
   912.20016004651370       -1.3742344378314804       0.35874453616914487        1.9365290821000975E-007   1.8459112820256898E-005
   967.93216964930457       -1.4290380022241946       0.35869145844571704        1.9263418998063440E-007   1.8651747010237533E-005
   1027.0080998282629       -1.4867222795293020       0.35863553127729014        1.9164387096101062E-007   1.8843390881198542E-005
   1089.6285858179588       -1.5474529963204593       0.35857659321849672        1.9068358076206212E-007   1.9034074461960606E-005
   1156.0063009670364       -1.6114060404775001       0.35851447380013318        1.8974815206825061E-007   1.9223822614028855E-005
   1226.3666790250586       -1.6787699197598787       0.35844899133297392        1.8883917213618744E-007   1.9412661786165042E-005
   1300.9486797665622       -1.7497455957935908       0.35837995329037703        1.8795587962643436E-007   1.9600617665791478E-005
   1380.0056005525560       -1.8245475593839455       0.35830715552392123        1.8709514935874165E-007   1.9787712815150220E-005
   1463.8059365857093       -1.9034058866150523       0.35823038056615447        1.8626083615517423E-007   1.9973973651305393E-005
   1552.6342927808519       -1.9865660533752694       0.35814939816438196        1.8545159287336565E-007   2.0159425244178759E-005
   1646.7923503477032       -2.0742909194160006       0.35806396376033461        1.8466334265090997E-007   2.0344088586829668E-005
   1746.5998913685655       -2.1668627722086651       0.35797381697658315        1.8389570722118073E-007   2.0527984294050849E-005
   1852.3958848506795       -2.2645842919879762       0.35787868123026251        1.8315091317850520E-007   2.0711135207229353E-005
   1964.5396379417205       -2.3677799497330709       0.35777826301299331        1.8242817750306849E-007   2.0893563384732422E-005
   2083.4120162182239       -2.4767989253270684       0.35767224979277229        1.8172268499858523E-007   2.1075286069731008E-005
   2209.4167371913172       -2.5920168983233389       0.35756030913211351        1.8103770761058148E-007   2.1256323777341588E-005
   2342.9817414227964       -2.7138375476276670       0.35744208822302442        1.8037275863688007E-007   2.1436696535978468E-005
   2484.5606459081641       -2.8426973184144591       0.35731721040748871        1.7972290674484168E-007   2.1616419442723309E-005
   2634.6342846626540       -2.9790655672839654       0.35718527636570202        1.7909317993483775E-007   2.1795512622658146E-005
   2793.7123417424132       -3.1234505552507685       0.35704585984479897        1.7847827194847308E-007   2.1973990894606620E-005
   2962.3350822469583       -3.2764020106598446       0.35689850696253539        1.7787888289253637E-007   2.2151869777499158E-005
   3141.0751871817761       -3.4385133543273985       0.35674273610462026        1.7729616383976174E-007   2.2329165941338920E-005
   3330.5396984126828       -3.6104290481268899       0.35657803321473508        1.7672792595340007E-007   2.2505893867292320E-005
   3520.0042096435895       -3.7825152377005851       0.35641370085602470        1.7620299248378237E-007   2.2682096859776104E-005
   3709.4687208744963       -3.9548484059791429       0.35624969486238584        1.7571594006439039E-007   2.2857812799840496E-005
   3898.9332321054030       -4.1274980636701892       0.35608597561477084        1.7526220863582108E-007   2.3033075008476316E-005
   4088.3977433363098       -4.3005258491092997       0.35592250922838248        1.7483869234335795E-007   2.3207913700819672E-005
   4277.8622545672170       -4.4739905234881210       0.35575926309598316        1.7444030207016541E-007   2.3382354002889838E-005
   4467.3267657981232       -4.6479436308099089       0.35559621020646437        1.7406562685455326E-007   2.3556419629744391E-005
   4656.7912770290295       -4.8224324986585350       0.35543332647280851        1.7371212545903250E-007   2.3730131755203422E-005
   4846.2557882599358       -4.9975023952950739       0.35527058886694352        1.7337695529908008E-007   2.3903508710502503E-005
   5047.0881701646967       -5.1837647565767675       0.35509821689083809        1.7304310486301636E-007   2.4076551815365518E-005
   5247.9205520694577       -5.3707720175670310       0.35492596524278247        1.7272512421196127E-007   2.4249276939577479E-005
   5448.7529339742186       -5.5585649174751994       0.35475381638795828        1.7242319347047862E-007   2.4421700133047958E-005
   5649.5853158789796       -5.7471839857638214       0.35458175240084938        1.7213504002360383E-007   2.4593835173071563E-005
   5850.4176977837406       -5.9366626145875703       0.35440976136388835        1.7186123639948034E-007   2.4765696409471043E-005
   6051.2500796885015       -6.1270360105343356       0.35423782925347613        1.7159933109943474E-007   2.4937295740570476E-005
   6252.0824615932625       -6.3183372230573953       0.35406594363804383        1.7134850120157446E-007   2.5108644241772052E-005
   6452.9148434980234       -6.5105974028113316       0.35389409348295575        1.7110791744724143E-007   2.5279752159219294E-005
   6653.7472254027844       -6.7038438004866876       0.35372227095499836        1.7087758947652265E-007   2.5450629748695816E-005
   6854.5796073075453       -6.8981086045590541       0.35355046359999298        1.7065488423612445E-007   2.5621284632931940E-005
   7055.4119892123063       -7.0934179969113540       0.35337866411851726        1.7044055947123055E-007   2.5791725192403172E-005
   7256.2443711170672       -7.2897975430587563       0.35320686557067205        1.7023388771503755E-007   2.5961959080118211E-005
   7457.0767530218282       -7.4872721490277012       0.35303506144320163        1.7003430531072045E-007   2.6131993385428933E-005
   7657.9091349265891       -7.6858659502526354       0.35286324576902650        1.6984132345507089E-007   2.6301834708884004E-005
   7858.7415168313501       -7.8856052640867764       0.35269141061098502        1.6965366612616810E-007   2.6471488375010172E-005
   8071.6238416503966       -8.0986248754029901       0.35250922159624887        1.6946361461755289E-007   2.6640951989627726E-005
   8284.5061664694440       -8.3129826049166020       0.35232700081989476        1.6927782523691150E-007   2.6810229814864637E-005
   8497.3884912884914       -8.5287031173613670       0.35214474431813714        1.6909782358382872E-007   2.6979327638448467E-005
   8710.2708161075388       -8.7458108821245588       0.35196244822050576        1.6892312475698684E-007   2.7148250763205453E-005
   8923.1531409265863       -8.9643300415715768       0.35178010888091210        1.6875336122776053E-007   2.7317004124433213E-005
   9136.0354657456337       -9.1842842843687897       0.35159772299766201        1.6858821411736421E-007   2.7485592338550576E-005
   9348.9177905646811       -9.4056968450158038       0.35141528762333085        1.6842739374783414E-007   2.7654019732298410E-005
   9561.8001153837286       -9.6285942971130840       0.35123279707632427        1.6826974935926347E-007   2.7822289481657672E-005
   9774.6824402027760       -9.8529928356912944       0.35105025416867991        1.6811717812358143E-007   2.7990406659781253E-005
   9987.5647650218234       -10.078916012103701       0.35086765566189632        1.6796797297853509E-007   2.8158374632759788E-005
   10200.447089840871       -10.306386212053036       0.35068499929437924        1.6782206628334886E-007   2.8326196699043138E-005
   10413.329414659918       -10.535425119524877       0.35050228339443928        1.6767930097898142E-007   2.8493876000022121E-005
   10626.211739478966       -10.766054040398870       0.35031950661745620        1.6753950577716685E-007   2.8661415505799288E-005
   10839.094064298013       -10.998294010206287       0.35013666786145703        1.6740251359327208E-007   2.8828818019392559E-005
   11051.976389117061       -11.232165845171483       0.34995376622926599        1.6726816559880902E-007   2.8996086184991369E-005
   11264.858713936108       -11.467685581734644       0.34977080456175585        1.6713727779089888E-007   2.9163223462782267E-005
   11477.741038755155       -11.704881252522553       0.34958777641938604        1.6700739548375125E-007   2.9330230858266018E-005
   11690.623363574203       -11.943771393261095       0.34940468281797921        1.6687995374848187E-007   2.9497110812014501E-005
   11903.505688393250       -12.184375491345945       0.34922152406069656        1.6675468124084031E-007   2.9663865493255342E-005
   12116.388013212298       -12.426713427233443       0.34903830018887344        1.6663141879588207E-007   2.9830496912051224E-005
   12329.270338031345       -12.670805143082536       0.34885501124476770        1.6651004206752255E-007   2.9997006954118746E-005
   12542.152662850393       -12.916670567384749       0.34867165733322575        1.6639044128703478E-007   3.0163397395405779E-005
   12755.034987669440       -13.164329601404658       0.34848823863490536        1.6627251580378356E-007   3.0329669911209565E-005
   12967.917312488487       -13.413802122188553       0.34830475540649175        1.6615617208872489E-007   3.0495826083298289E-005
   13180.799637307535       -13.665107990849844       0.34812120797675622        1.6604132273320543E-007   3.0661867406031493E-005
   13393.681962126582       -13.918267062662109       0.34793759674118763        1.6592788581467614E-007   3.0827795291846167E-005
   13606.564286945630       -14.173304821760983       0.34775391811996542        1.6581474082747870E-007   3.0993610032673647E-005
   13832.219551253820       -14.445758487633688       0.34755911712910348        1.6569795225754324E-007   3.1159307984931189E-005
   14057.874815562011       -14.720361445745414       0.34736424769560997        1.6558207252985866E-007   3.1324890057461050E-005
   14283.530079870201       -14.997138932214430       0.34716930947782981        1.6546736999223385E-007   3.1490357427453281E-005
   14509.185344178391       -15.276115331747677       0.34697430284831943        1.6535382251308563E-007   3.1655711249966368E-005
   14734.840608486582       -15.557314737077999       0.34677922848522597        1.6524137967443671E-007   3.1820952629640804E-005
