 #              _____________________  _______________________             #
 #              ___  __ \__  __ \_  / / /_  /___  ____/_  ___/             #
 #              __  / / /_  /_/ /  / / /_  __/_  __/  _____ \              #
 #              _  /_/ /_  _, _// /_/ / / /_ _  /___  ____/ /              #
 #              /_____/ /_/ |_| \____/  \__/ /_____/  /____/               #
 #                                                                         #
  
 #        time                      T            heat flux [W.L-2]   in    x              directions   cumulative flux
 #-----------------------------------------------------------------------------------------------

   0.0000000000000000        25.000000000000000       -0.0000000000000000        0.0000000000000000     
   1.0000000000000000        24.999998004045352        3.3732922780416240E-004   3.3732922780416240E-004
   2.0600000000000001        24.999991101329869        1.4704083527661311E-003   1.8077375805702935E-003
   3.1836000000000002        24.999976190081391        3.9448346487702748E-003   5.7525722293405683E-003
   4.3746160000000005        24.999948962478719        8.4819727174334659E-003   1.4234544946774034E-002
   5.6370929600000004        24.999904011681796        1.5975659274509751E-002   3.0210204221283787E-002
   6.9753185376000006        24.999834659606584        2.7522462296580893E-002   5.7732666517864684E-002
   8.3938376498560014        24.999732739858569        4.4454959430204694E-002  0.10218762594806938     
   9.8974679088473625        24.999588354063039        6.8377703659337055E-002  0.17056532960740645     
   11.491315983378204        24.999389601682054       0.10120616564929481       0.27177149525670125     
   13.180794942380897        24.999122282501144       0.14520858776592177       0.41698008302262302     
   14.971642638923752        24.998769571595414       0.20305045208285613       0.62003053510547912     
   16.869941197259177        24.998311667427938       0.27784106111376211       0.89787159621924117     
   18.882137669094728        24.997725414733363       0.37318151090914925        1.2710531071283904     
   21.015065929240414        24.996983905022876       0.49321308916077650        1.7642661962891668     
   23.275969884994840        24.996056057537718       0.64266508066961003        2.4069312769587770     
   25.672528078094530        24.994906192689601       0.82689941562527891        3.2338306925840561     
   28.212879762780204        24.993493594481194        1.0519520953912951        4.2857827879753509     
   30.905652548547017        24.991772081292225        1.3245675859639074        5.6103503739392586     
   33.759991701459839        24.989689592306977        1.6522243327006012        7.2625747066398603     
   36.785591203547433        24.987187804133981        2.0431484137331459        9.3057231203730062     
   39.992726675760281        24.984201793503836        2.5063121999996745        11.812035320372681     
   43.392290276305900        24.980659763922805        3.0514146892522889        14.863450009624970     
   46.995827692884255        24.976482855873833        3.6888400833913049        18.552290093016275     
   50.815577354457311        24.971585061437395        4.4295912178881105        22.981881310904384     
   54.864511995724754        24.965873264872574        5.2851946655867463        28.267075976491132     
   59.156382715468240        24.959247430564272        6.2675747605010672        34.534650736992198     
   63.705765678396340        24.951600958614275        7.3888944523415878        41.923545189333787     
   68.528111619100116        24.942821226056083        8.6613618335638325        50.584907022897617     
   73.639798316246129        24.932790328062779        10.097002389737979        60.681909412635598     
   79.058186215220900        24.921386028504124        11.707398505864136        72.389307918499739     
   84.801677388134152        24.908482922781090        13.503399489045396        85.892707407545132     
   90.889778031422210        24.893953808108275        15.494807288902871        101.38751469644801     
   97.343164713307544        24.877671247529332        17.690045129941399        119.07755982638940     
   104.18375459610600        24.859509304269796        20.095818304014127        139.17337813040353     
   111.43477987187237        24.839345413018108        22.716778268688323        161.89015639909186     
   119.12086666418472        24.817062344964199        25.555202799913712        187.44535919900557     
   127.26811866403581        24.792550214594375        28.610706085342681        216.05606528434825     
   135.90420578387796        24.765708469072774        31.879993150594490        247.93605843494274     
   145.05845813091065        24.736447796256787        35.356672737560928        283.29273117250364     
   154.76196561876529        24.704691885642568        39.031141592665115        322.32387276516874     
   165.04768355589121        24.670378978305777        42.890551023442860        365.21442378861161     
   175.95054456924470        24.633463219211961        46.918853245172855        412.13327703378445     
   187.50757724339940        24.593915412874406        51.096982645519539        463.23025967930397     
   199.75803187800338        24.551723818701802        55.403072042342565        518.63333172164653     
   212.74351379068358        24.506894326890006        59.812794119623547        578.44612584127003     
   226.50812461812461        24.459450309249490        64.299773274728736        642.74589911599878     
   241.09861209521210        24.409432102955208        68.836061960234275        711.58196107623303     
   256.56452882092486        24.356896157493644        73.392663641152353        784.97462471738538     
   272.95840055018039        24.301913889326880        77.940081993197097        862.91470671058244     
   290.33590458319122        24.244570299997946        82.448874752370330        945.36358146295277     
   308.75605885818271        24.184962420568940        86.890190831992228        1032.2537722949451     
   328.28142238967371        24.123197648008535        91.236270928912532        1123.4900432238576     
   348.97830773305412        24.059392037482823        95.460894685179554        1218.9509379090371     
   370.91700619703738        23.993668608936453        99.539761274622521        1318.4906991836597     
   394.17202656885962        23.926155709611010        103.45079232272558        1421.9414915063853     
   418.82234816299120        23.856985645620661        107.17434434510351        1529.1158358514888     
   444.95168905277069        23.786293053159127        110.69338273341228        1639.8092185849011     
   472.64879039593694        23.714213732919394        113.99354264275821        1753.8027612276594     
   502.00771781969320        23.640883562540729        117.06313116262078        1870.8658923902801     
   533.12818088887479        23.566437560241152        119.89307089343797        1990.7589632837180     
   566.11587174220733        23.491009091186736        122.47679533172330        2113.2357586154412     
   601.08282404673980        23.414729204400466        124.81010675032265        2238.0458653657638     
   638.14779348954426        23.337725871064862        126.89104194010382        2364.9369073058674     
   677.43666109891694        23.260123751940100        128.71963670400228        2493.6565440098698     
   719.08286076485194        23.182043954528741        130.29772590073321        2623.9542699106032     
   763.22783241074308        23.103603636648007        131.62875809272904        2755.5830280033324     
   810.02150235538772        23.024915752417371        132.71760243115042        2888.3006304344826     
   859.62279249671099        22.946089297241350        133.57029546886938        3021.8709259033521     
   912.20016004651370        22.867228534624896        134.19397010759616        3156.0648960109484     
   967.93216964930457        22.788432955816045        134.59665670932125        3290.6615527202698     
   1027.0080998282629        22.709797362410583        134.78710376868685        3425.4486564889567     
   1089.6285858179588        22.631411152671738        134.77472521591537        3560.2233817048718     
   1156.0063009670364        22.553359507599009        134.56927779787699        3694.7926595027488     
   1226.3666790250586        22.475723093310130        134.18081288000496        3828.9734723827537     
   1300.9486797665622        22.398577878522904        133.61959697066143        3962.5930693534151     
   1380.0056005525560        22.321996596200943        132.89582948117092        4095.4888988345861     
   1463.8059365857093        22.246046152322450        132.01994861714601        4227.5088474517324     
   1552.6342927808519        22.170787137012521        131.00256039665757        4358.5114078483903     
   1646.7923503477032        22.096277122025942        129.85391701611454        4488.3653248645051     
   1746.5998913685655        22.022571467360667        128.58384994061808        4616.9491748051232     
   1852.3958848506795        21.949719590509780        127.20225447019337        4744.1514292753163     
   1964.5396379417205        21.877764121446745        125.71907073536447        4869.8705000106811     
   2083.4120162182239        21.806748504285853        124.14328600852512        4994.0137860192062     
   2209.4167371913172        21.736710413320896        122.48389551615523        5116.4976815353612     
   2342.9817414227964        21.667679843832396        120.74999344604997        5237.2476749814114     
   2484.5606459081641        21.599691217521489        118.94928206832920        5356.1969570497404     
   2634.6342846626540        21.532766833567972        117.09024342244923        5473.2872004721894     
   2793.7123417424132        21.466931882220358        115.18011735524095        5588.4673178274306     
   2962.3350822469583        21.402211024409088        113.22559226928452        5701.6929100967154     
   3141.0751871817761        21.338619099410288        111.23383316057762        5812.9267432572933     
   3330.5396984126828        21.276169391798582        109.21133503209145        5922.1380782893848     
   3520.0042096435895        21.218109066630234        107.27506961916964        6029.4131479085545     
   3709.4687208744963        21.163956393575514        105.42167720952486        6134.8348251180796     
   3898.9332321054030        21.113299371740816        103.64738037205339        6238.4822054901333     
   4088.3977433363098        21.065779305877193        101.94866207765675        6340.4308675677903     
   4277.8622545672170        21.021093076635971        100.32105128130145        6440.7519188490915     
   4467.3267657981232        20.978975062563379        98.760556912888759        6539.5124757619806     
   4656.7912770290295        20.939191902863325        97.263452901892578        6636.7759286638729     
   4846.2557882599358        20.901542526421164        95.825744067399725        6732.6016727312726     
   5047.0881701646967        20.863808257686060        94.365560107050584        6826.9672328383231     
   5247.9205520694577        20.828061416837599        92.964873478381136        6919.9321063167044     
   5448.7529339742186        20.794136524503628        91.619969254462063        7011.5520755711668     
   5649.5853158789796        20.761890083468970        90.327036928948303        7101.8791125001153     
   5850.4176977837406        20.731185659729466        89.083519050269885        7190.9626315503856     
   6051.2500796885015        20.701903302204478        87.886607802759571        7278.8492393531451     
   6252.0824615932625        20.673936421305385        86.733546274560169        7365.5827856277056     
   6452.9148434980234        20.647189298862635        85.621751685735759        7451.2045373134415     
   6653.7472254027844        20.621570814475771        84.549295849418272        7535.7538331628593     
   6854.5796073075453        20.597006654205014        83.513407776121696        7619.2672409389806     
   7055.4119892123063        20.573426960621763        82.511927130752809        7701.7791680697337     
   7256.2443711170672        20.550766875929337        81.542974189520876        7783.3221422592542     
   7457.0767530218282        20.528966793814163        80.604804129310580        7863.9269463885648     
   7657.9091349265891        20.507972057252108        79.695772857818071        7943.6227192463830     
   7858.7415168313501        20.487737183111538        78.813860491817707        8022.4365797382006     
   8071.6238416503966        20.467077316989148        77.908949371879430        8100.3455291100800     
   8284.5061664694440        20.447159282533018        77.031764811342001        8177.3772939214223     
   8497.3884912884914        20.427938773022365        76.180641982070838        8253.5579359034928     
   8710.2708161075388        20.409373631587236        75.354168229878482        8328.9121041333710     
   8923.1531409265863        20.391424628202770        74.551043182093196        8403.4631473154641     
   9136.0354657456337        20.374055424454554        73.770043921459560        8477.2331912369245     
   9348.9177905646811        20.357232365435728        73.010018104416602        8550.2432093413408     
   9561.8001153837286        20.340929204931058        72.269392126576719        8622.5126014679172     
   9774.6824402027760        20.325112558763170        71.547727280265605        8694.0603287481827     
   9987.5647650218234        20.309754010474300        70.844153515574732        8764.9044822637570     
   10200.447089840871        20.294828340576828        70.157719507071889        8835.0622017708283     
   10413.329414659918        20.280312357353200        69.487526425309866        8904.5497281961379     
   10626.211739478966        20.266184452016248        68.832745742126335        8973.3824739382635     
   10839.094064298013        20.252424410995090        68.192611373441665        9041.5750853117061     
   11051.976389117061        20.239013303092165        67.566410480091349        9109.1414957917968     
   11264.858713936108        20.225928407729747        66.953967853939147        9176.0954636457354     
   11477.741038755155        20.213157505192434        66.354077450830971        9242.4495410965665     
   11690.623363574203        20.200686465821690        65.766065147521189        9308.2156062440881     
   11903.505688393250        20.188500791866439        65.189430127381954        9373.4050363714705     
   12116.388013212298        20.176586560739437        64.623705685926936        9438.0287420573968     
   12329.270338031345        20.164930665839751        64.068436120318793        9502.0971781777153     
   12542.152662850393        20.153520821718196        63.523179343572856        9565.6203575212876     
   12755.034987669440        20.142345512315867        62.987511127686858        9628.6078686489745     
   12967.917312488487        20.131393932423578        62.461027326418495        9691.0688959753934     
   13180.799637307535        20.120655933677895        61.943344493546753        9753.0122404689409     
   13393.681962126582        20.110121976464399        61.434099609349296        9814.4463400782897     
   13606.564286945630        20.099787979304249        60.932467073563231        9875.3788071518538     
   13832.219551253820        20.089043710733950        60.409573251819921        9935.7883804036737     
   14057.874815562011        20.078497887621467        59.895206341213516        9995.6835867448881     
   14283.530079870201        20.068141951128766        59.388963166746400        10055.072549911634     
   14509.185344178391        20.057967813596335        58.890469262469516        10113.963019174103     
   14734.840608486582        20.047967879562513        58.399390038938641        10172.362409213041     
   14960.495872794772        20.038134970915383        57.915422635125040        10230.277831848167     
   15186.151137102963        20.028457069099503        57.438795329237564        10287.716627177404     
   15411.806401411153        20.018932494996637        56.968637898469865        10344.685265075874     
   15637.461665719344        20.009556660994956        56.504630731635501        10401.189895807509     
   15863.116930027534        20.000323955954084        56.046604087882024        10457.236499895391     
   16088.772194335725        19.991228792532841        55.594398071782400        10512.830897967173     
   16314.427458643915        19.982265885242597        55.147843978170350        10567.978741945342     
   16540.082722952106        19.973430285895219        54.706769609212920        10622.685511554555     
   16765.737987260294        19.964717362658561        54.271004994404379        10676.956516548958     
   16991.393251568483        19.956122771746575        53.840385619293365        10730.796902168251     
   17217.048515876671        19.947642431999977        53.414753892537512        10784.211656060788     
   17442.703780184860        19.939272503356307        52.993959658940241        10837.205615719729     
   17668.359044493049        19.931009368478300        52.577860236223536        10889.783475955954     
   17894.014308801237        19.922849616752458        52.166320222678969        10941.949796178633     
   18119.669573109426        19.914790030078617        51.759211199260115        10993.709007377893     
   18345.324837417615        19.906827570057818        51.356411387762812        11045.065418765655     
   18570.980101725803        19.898964476842458        50.957310559331525        11096.022729324986     
   18796.635366033992        19.891193475038968        50.562390453489371        11146.585119778476     
   19022.290630342181        19.883510553621743        50.171626136171369        11196.756745914647     
   19247.945894650369        19.875913173115229        49.784864663946372        11246.541610578593     
   19473.601158958558        19.868399225794736        49.401960048841026        11295.943570627434     
   19699.256423266746        19.860966734891669        49.022791032173267        11344.966361659608     
   19924.911687574935        19.853613792510600        48.647255158233754        11393.613616817842     
   20150.566951883124        19.846338555254764        48.275262296717315        11441.888879114560     
   20376.222216191312        19.839139249016561        47.906730593883985        11489.795609708444     
   20601.877480499501        19.832014172494269        47.541584192672651        11537.337193901118     
   20827.532744807690        19.824961698254093        47.179751942249503        11584.516945843367     
   21053.188009115878        19.817980271938204        46.821166627450616        11631.338112470818     
   21278.843273424067        19.811068410307783        46.465764471755605        11677.803876942573     
   21504.498537732255        19.804224698617631        46.113484788530755        11723.917361731104     
   21730.153802040444        19.797447787641737        45.764269716489153        11769.681631447593     
   21955.809066348633        19.790736390548307        45.418064005787478        11815.099695453380     
   22181.464330656821        19.784089279745789        45.074814836566453        11860.174510289946     
   22407.119594965010        19.777505283773422        44.734471659782869        11904.908981949729     
   22632.774859273199        19.770983284280408        44.396986054357633        11949.305968004088     
   22858.430123581387        19.764522213118958        44.062311597010023        11993.368279601098     
