 #              _____________________  _______________________             #
 #              ___  __ \__  __ \_  / / /_  /___  ____/_  ___/             #
 #              __  / / /_  /_/ /  / / /_  __/_  __/  _____ \              #
 #              _  /_/ /_  _, _// /_/ / / /_ _  /___  ____/ /              #
 #              /_____/ /_/ |_| \____/  \__/ /_____/  /____/               #
 #                                                                         #
  
 #        time                      h  [L]                   theta [-]       Darcian flow [L.T^{-1}]   in    x              directions   cumulative flux
 #-----------------------------------------------------------------------------------------------

   0.0000000000000000      -0.25000000000000000       0.35979931717114128        2.5955439938456022E-024   2.5955439938456022E-024
   1.0000000000000000      -0.25239499982827279       0.35979723029247512        4.5618318760002013E-008   4.5618318760002013E-008
   2.0600000000000001      -0.25610298983886221       0.35979399622016017        9.5568353284845873E-008   1.4118667204484789E-007
   3.1836000000000002      -0.26024920715013350       0.35979037550067039        1.3513783269237185E-007   2.7632450473721974E-007
   4.3746160000000005      -0.26447322553989583       0.35978668211016024        1.6436823355181378E-007   4.4069273828903352E-007
   5.6370929600000004      -0.26865937647345389       0.35978301719870015        1.8593914330081041E-007   6.2663188158984387E-007
   6.9753185376000006      -0.27278437523038940       0.35977940138962256        2.0205537944281611E-007   8.2868726103265996E-007
   8.3938376498560014      -0.27685840877007656       0.35977582600286856        2.1418461715914632E-007   1.0428718781918062E-006
   9.8974679088473625      -0.28090390206315130       0.35977227154804586        2.2328197740703924E-007   1.2661538555988454E-006
   11.491315983378204      -0.28494760648010098       0.35976871463048871        2.2999373482396827E-007   1.4961475904228137E-006
   13.180794942380897      -0.28901738513741548       0.35976513076714789        2.3478529893536556E-007   1.7309328893581793E-006
   14.971642638923752      -0.29314075521855582       0.35976149567030896        2.3801383263277411E-007   1.9689467219909535E-006
   16.869941197259177      -0.29734416474229997       0.35975778588947455        2.3996757432947860E-007   2.2089142963204321E-006
   18.882137669094728      -0.30165262814276389       0.35975397913864066        2.4088656617155601E-007   2.4498008624919878E-006
   21.015065929240414      -0.30608956890263178       0.35975005444122504        2.4097356790079729E-007   2.6907744303927852E-006
   23.275969884994840      -0.31067660029687094       0.35974599232995347        2.4039904804575656E-007   2.9311734784385417E-006
   25.672528078094530      -0.31543417145661323       0.35974177428003673        2.3930849335712373E-007   3.1704819717956654E-006
   28.212879762780204      -0.32038116386024301       0.35973738307038777        2.3782189793700507E-007   3.4083038697326704E-006
   30.905652548547017      -0.32553525217921847       0.35973280246776107        2.3603778168652284E-007   3.6443416514191932E-006
   33.759991701459839      -0.33091312948244023       0.35972801702960311        2.3403600816812486E-007   3.8783776595873178E-006
   36.785591203547433      -0.33653074656337212       0.35972301189314598        2.3188049404099020E-007   4.1102581536283083E-006
   39.992726675760281      -0.34240355360753066       0.35971777256113507        2.2962179029925112E-007   4.3398799439275590E-006
   43.392290276305900      -0.34854673531691438       0.35971228469205302        2.2729947189294604E-007   4.5671794158205052E-006
   46.995827692884255      -0.35497543256286385       0.35970653390101293        2.2494427271249522E-007   4.7921236885330003E-006
   50.815577354457311      -0.36170494590763258       0.35970050557551619        2.2257992723466923E-007   5.0147036157676699E-006
   54.864511995724754      -0.36875091848310459       0.35969418470839121        2.2022470647061359E-007   5.2349283222382836E-006
   59.156382715468240      -0.37612949752657621       0.35968755574863803        2.1789265801370492E-007   5.4528209802519889E-006
   63.705765678396340      -0.38385747526246367       0.35968060246967487        2.1559457616209952E-007   5.6684155564140881E-006
   68.528111619100116      -0.39195241077101112       0.35967330785363838        2.1333873813653155E-007   5.8817542945506194E-006
   73.639798316246129      -0.40043273503694687       0.35966565398989064        2.1113144701800738E-007   6.0928857415686272E-006
   79.058186215220900      -0.40931784159213047       0.35965762198568485        2.0897742229043953E-007   6.3018631638590668E-006
   84.801677388134152      -0.41862816514317280       0.35964919188694749        2.0688007602244854E-007   6.5087432398815155E-006
   90.889778031422210      -0.42838525039621056       0.35964034260729422        2.0484170793072322E-007   6.7135849478122386E-006
   97.343164713307544      -0.43861181303522978       0.35963105186361255        2.0286364682227306E-007   6.9164485946345118E-006
   104.18375459610600      -0.44933179453932087       0.35962129611678584        2.0094635997283681E-007   7.1173949546073488E-006
   111.43477987187237      -0.46057041227970885       0.35961105051634751        1.9908954637488107E-007   7.3164845009822298E-006
   119.12086666418472      -0.47235420614173407       0.35960028884802958        1.9729222478834752E-007   7.5137767257705773E-006
   127.26811866403581      -0.48471108277582342       0.35958898348329216        1.9555282328659381E-007   7.7093295490571717E-006
   135.90420578387796      -0.49767035848913704       0.35957710533000681        1.9386927354096597E-007   7.9031988225981376E-006
   145.05845813091065      -0.51126280173297145       0.35956462378351245        1.9223911039294256E-007   8.0954379329910806E-006
   154.76196561876529      -0.52552067610496778       0.35955150667729746        1.9065957525877625E-007   8.2860975082498570E-006
   165.04768355589121      -0.54047778475636055       0.35953772023258329        1.8912772052936408E-007   8.4752252287792214E-006
   175.95054456924470      -0.55616990416204481       0.35952322864829139        1.8764163637416046E-007   8.6628668651533825E-006
   187.50757724339940      -0.57263372726674511       0.35950799506781711        1.8619678160860268E-007   8.8490636467619851E-006
   199.75803187800338      -0.58990793805571051       0.35949198058031068        1.8479025174242894E-007   9.0338538985044135E-006
   212.74351379068358      -0.60803301829514822       0.35947514439040767        1.8341952478727065E-007   9.2172734232916848E-006
   226.50812461812461      -0.62705125808777007       0.35945744380150629        1.8208213295576533E-007   9.3993555562474500E-006
   241.09861209521210      -0.64700682589369474       0.35943883414495775        1.8077580582775822E-007   9.5801313620752089E-006
   256.56452882092486      -0.66794584762912979       0.35941926870173324        1.7949852358982928E-007   9.7596298856650390E-006
   272.95840055018039      -0.68991649262480981       0.35939869861873386        1.7824852707113843E-007   9.9378784127361769E-006
   290.33590458319122      -0.71296906800824389       0.35937707281841219        1.7702430359672309E-007   1.0114902716332900E-005
   308.75605885818271      -0.73715612318035029       0.35935433790026894        1.7582455596304608E-007   1.0290727272295946E-005
   328.28142238967371      -0.76253256611760745       0.35933043803273174        1.7464815935763161E-007   1.0465375431653578E-005
   348.97830773305412      -0.78915579338313446       0.35930531483377953        1.7349411053264490E-007   1.0638869542186222E-005
   370.91700619703738      -0.81708583590971218       0.35927890723851130        1.7236147340416671E-007   1.0811231015590389E-005
   394.17202656885962      -0.84638516240550166       0.35925115169341987        1.7124842060409594E-007   1.0982479436194485E-005
   418.82234816299120      -0.87711990426573816       0.35922198100638275        1.7015539841404910E-007   1.1152634834608534E-005
   444.95168905277069      -0.90935905990074484       0.35919132511111790        1.6908103812520148E-007   1.1321715872733736E-005
   472.64879039593694      -0.94317501942652926       0.35915911058617123        1.6802401784735580E-007   1.1489739890581092E-005
   502.00771781969320      -0.97864385875633508       0.35912526039415565        1.6698301392659864E-007   1.1656722904507692E-005
   533.12818088887479       -1.0158456209656348       0.35908969363630244        1.6595659296298767E-007   1.1822679497470680E-005
   566.11587174220733       -1.0548646313378027       0.35905232527877162        1.6494319690932909E-007   1.1987622694380009E-005
   601.08282404673980       -1.0957898463189442       0.35901306585099269        1.6394115860188794E-007   1.2151563852981898E-005
   638.14779348954426       -1.1387156849523976       0.35897182068532302        1.6294973476173141E-007   1.2314513587743629E-005
   677.43666109891694       -1.1837411382614105       0.35892849081731504        1.6196549905958312E-007   1.2476479086803212E-005
   719.08286076485194       -1.2309715347609160       0.35888297134279129        1.6098724681817623E-007   1.2637466333621388E-005
   763.22783241074308       -1.2805185923717115       0.35883515142690314        1.6001343380450379E-007   1.2797479767425892E-005
   810.02150235538772       -1.3325009313666323       0.35878491388086997        1.5904252843864116E-007   1.2956522295864533E-005
   859.62279249671099       -1.3870441653408776       0.35873213515884267        1.5807217292003096E-007   1.3114594468784564E-005
   912.20016004651370       -1.4442829611275101       0.35867668346273668        1.5710287992806016E-007   1.3271697348712625E-005
   967.93216964930457       -1.5043602374758205       0.35861841962966573        1.5613315875296581E-007   1.3427830507465590E-005
   1027.0080998282629       -1.5674284038181108       0.35855719606548220        1.5516232618450200E-007   1.3582992833650091E-005
   1089.6285858179588       -1.6336507096253958       0.35849285558882993        1.5419116009798118E-007   1.3737183993748073E-005
   1156.0063009670364       -1.7032003829174154       0.35842523244789665        1.5321799249885099E-007   1.3890401986246923E-005
   1226.3666790250586       -1.7762632493552044       0.35835414998518073        1.5224391459934569E-007   1.4042645900846268E-005
   1300.9486797665622       -1.8530380602145382       0.35827942055970369        1.5126973120239805E-007   1.4193915632048666E-005
   1380.0056005525560       -1.9337366564506291       0.35820084566943200        1.5029500423587464E-007   1.4344210636284541E-005
   1463.8059365857093       -2.0185877283412021       0.35811821261682614        1.4932334419159361E-007   1.4493533980476135E-005
   1552.6342927808519       -2.1078362011717910       0.35803129548387619        1.4835643638550256E-007   1.4641890416861638E-005
   1646.7923503477032       -2.2017432033445843       0.35793985560078262        1.4739369543508483E-007   1.4789284112296723E-005
   1746.5998913685655       -2.3005891112972288       0.35784363908471695        1.4643641717808426E-007   1.4935720529474808E-005
   1852.3958848506795       -2.4046767645352500       0.35774237429303768        1.4548845214874413E-007   1.5081208981623553E-005
   1964.5396379417205       -2.5143317266248362       0.35763577224521104        1.4455211717979713E-007   1.5225761098803350E-005
   2083.4120162182239       -2.6299011561597254       0.35752352849375885        1.4362560274758308E-007   1.5369386701550933E-005
   2209.4167371913172       -2.7517619024342856       0.35740531614951826        1.4271335864637631E-007   1.5512100060197310E-005
   2342.9817414227964       -2.8803203045486674       0.35728078711873756        1.4181788356230484E-007   1.5653917943759616E-005
   2484.5606459081641       -3.0160102067383341       0.35714957520598045        1.4093626991354140E-007   1.5794854213673159E-005
   2634.6342846626540       -3.1593061638177131       0.35701128470147270        1.4007509703887936E-007   1.5934929310712039E-005
   2793.7123417424132       -3.3107152624096368       0.35686549987185967        1.3923125321273871E-007   1.6074160563924778E-005
   2962.3350822469583       -3.4707874438313402       0.35671177679632043        1.3840612205611688E-007   1.6212566685980896E-005
   3141.0751871817761       -3.6401207875592920       0.35654964039765036        1.3760277384683867E-007   1.6350169459827736E-005
   3330.5396984126828       -3.8193611104875136       0.35637858724538818        1.3682030420689798E-007   1.6486989764034635E-005
   3520.0042096435895       -3.9984575779176694       0.35620828498172508        1.3610018306008434E-007   1.6623089947094718E-005
   3709.4687208744963       -4.1775148714039032       0.35603865894498898        1.3543399213739077E-007   1.6758523939232109E-005
   3898.9332321054030       -4.3566270121467943       0.35586964272514121        1.3481559899497469E-007   1.6893339538227083E-005
   4088.3977433363098       -4.5358795084647028       0.35570117647182314        1.3424097490370896E-007   1.7027580513130792E-005
   4277.8622545672170       -4.7153455983452028       0.35553321066421339        1.3370326978583613E-007   1.7161283782916627E-005
   4467.3267657981232       -4.8950938823847130       0.35536569911770927        1.3319989488839800E-007   1.7294483677805026E-005
   4656.7912770290295       -5.0751863267860298       0.35519860102528789        1.3272750738804129E-007   1.7427211185193066E-005
   4846.2557882599358       -5.2556777759320870       0.35503188150954135        1.3228200059354171E-007   1.7559493185786609E-005
   5047.0881701646967       -5.4475165642040428       0.35485551330055803        1.3184054938985411E-007   1.7691333735176461E-005
   5247.9205520694577       -5.6399219072472109       0.35467949612732913        1.3142343220401620E-007   1.7822757167380477E-005
   5448.7529339742186       -5.8329451808026311       0.35450379958422024        1.3102954296783584E-007   1.7953786710348314E-005
   5649.5853158789796       -6.0266325650868922       0.35432839757524953        1.3065569915281027E-007   1.8084442409501125E-005
   5850.4176977837406       -6.2210311792186737       0.35415326281890774        1.3030231642349348E-007   1.8214744725924618E-005
   6051.2500796885015       -6.4161818873664878       0.35397837341911054        1.2996653138147329E-007   1.8344711257306089E-005
   6252.0824615932625       -6.6121232437483961       0.35380370931229277        1.2964679926985110E-007   1.8474358056575942E-005
   6452.9148434980234       -6.8088914974747006       0.35362925229629583        1.2934182057504289E-007   1.8603699877150986E-005
   6653.7472254027844       -7.0065226869098298       0.35345498421011112        1.2905148663056288E-007   1.8732751363781549E-005
   6854.5796073075453       -7.2050461681795905       0.35328089265547774        1.2877251461677535E-007   1.8861523878398325E-005
   7055.4119892123063       -7.4044930623703422       0.35310696354728582        1.2850510755674813E-007   1.8990028985955074E-005
   7256.2443711170672       -7.6048925376774275       0.35293318442301508        1.2824849862163394E-007   1.9118277484576707E-005
   7457.0767530218282       -7.8062722631420378       0.35275954405043958        1.2800191059062273E-007   1.9246279395167329E-005
   7657.9091349265891       -8.0086586220720619       0.35258603224868995        1.2776463705777965E-007   1.9374044032225109E-005
   7858.7415168313501       -8.2120747622839794       0.35241264154950402        1.2753501082398057E-007   1.9501579043049090E-005
   8071.6238416503966       -8.4288873122979364       0.35222893630734320        1.2730373687121334E-007   1.9628882779920303E-005
   8284.5061664694440       -8.6469144653034853       0.35204534674723015        1.2707907416786483E-007   1.9755961854088168E-005
   8497.3884912884914       -8.8661829566993013       0.35186186458256341        1.2686212387313833E-007   1.9882823977961305E-005
   8710.2708161075388       -9.0867185669938397       0.35167848231237175        1.2665252355051904E-007   2.0009476501511823E-005
   8923.1531409265863       -9.3085460721635709       0.35149519326393386        1.2644980890287747E-007   2.0135926310414701E-005
   9136.0354657456337       -9.5316894249983584       0.35131199144192116        1.2625354283884327E-007   2.0262179853253543E-005
   9348.9177905646811       -9.7561718489163276       0.35112887145191984        1.2606332368943732E-007   2.0388243176942980E-005
   9561.8001153837286       -9.9820135265948835       0.35094583036774757        1.2587780379974128E-007   2.0514120980742721E-005
   9774.6824402027760       -10.209240035248818       0.35076286089865383        1.2569868222975634E-007   2.0639819662972478E-005
   9987.5647650218234       -10.437872089876738       0.35057995972480765        1.2552465540531614E-007   2.0765344318377794E-005
   10200.447089840871       -10.667930376826495       0.35039712355489072        1.2535533070861475E-007   2.0890699649086410E-005
   10413.329414659918       -10.899435298814032       0.35021434933861173        1.2519043911680553E-007   2.1015890088203214E-005
   10626.211739478966       -11.132406908629443       0.35003163432247719        1.2502973762536186E-007   2.1140919825828577E-005
   10839.094064298013       -11.366864921397353       0.34984897604138976        1.2487299857994295E-007   2.1265792824408518E-005
   11051.976389117061       -11.602828741280071       0.34966637229850905        1.2472000822468232E-007   2.1390512832633202E-005
   11264.858713936108       -11.840320160196184       0.34948381909807386        1.2457151579230557E-007   2.1515084348425508E-005
   11477.741038755155       -12.079354009472928       0.34930131782793949        1.2442537723486593E-007   2.1639509725660373E-005
   11690.623363574203       -12.319949704703394       0.34911886636141004        1.2428233513537249E-007   2.1763792060795744E-005
   11903.505688393250       -12.562125988404025       0.34893646312803572        1.2414233486654435E-007   2.1887934395662287E-005
   12116.388013212298       -12.805901236581221       0.34875410687322139        1.2400522462833483E-007   2.2011939620290621E-005
   12329.270338031345       -13.051293606708219       0.34857179654422044        1.2387085217106831E-007   2.2135810472461689E-005
   12542.152662850393       -13.298321091958552       0.34838953124913530        1.2373907503067893E-007   2.2259549547492370E-005
   12755.034987669440       -13.547001551942342       0.34820731023429530        1.2360976057935440E-007   2.2383159308071725E-005
   12967.917312488487       -13.797352736126941       0.34802513286747139        1.2348278500833939E-007   2.2506642093080065E-005
   13180.799637307535       -14.049392303726583       0.34784299862396922        1.2335803239939800E-007   2.2630000125479463E-005
   13393.681962126582       -14.303137841258476       0.34766090707464764        1.2323539397819306E-007   2.2753235519457656E-005
   13606.564286945630       -14.558603850980964       0.34747886002516398        1.2311387547019487E-007   2.2876349394927852E-005
   13832.219551253820       -14.831354137318238       0.34728589720527875        1.2298916415796336E-007   2.2999338559085814E-005
   14057.874815562011       -15.106082556711447       0.34709298115936732        1.2286586354985924E-007   2.3122204422635672E-005
   14283.530079870201       -15.382809646806599       0.34690011190175979        1.2274431104172865E-007   2.3244948733677401E-005
   14509.185344178391       -15.661556261317843       0.34670728928585215        1.2262452906238036E-007   2.3367573262739780E-005
   14734.840608486582       -15.942343186848730       0.34651451327601207        1.2250646744932138E-007   2.3490079730189102E-005
