 #              _____________________  _______________________             #
 #              ___  __ \__  __ \_  / / /_  /___  ____/_  ___/             #
 #              __  / / /_  /_/ /  / / /_  __/_  __/  _____ \              #
 #              _  /_/ /_  _, _// /_/ / / /_ _  /___  ____/ /              #
 #              /_____/ /_/ |_| \____/  \__/ /_____/  /____/               #
 #                                                                         #
  
 #        time                      T            heat flux [W.L-2]   in    x              directions   cumulative flux
 #-----------------------------------------------------------------------------------------------

   0.0000000000000000        25.000000000000000       -0.0000000000000000        0.0000000000000000     
   1.0000000000000000        25.000000000000000        6.0396132539608465E-013   6.0396132539608465E-013
   2.0600000000000001        24.999999987057947        6.7175296436516810E-007   6.7175356832649350E-007
   3.1836000000000002        24.999999954213298        2.0565831349017555E-006   2.7283367032282487E-006
   4.3746160000000005        24.999999902257350        3.8236006361103103E-006   6.5519373393385590E-006
   5.6370929600000004        24.999999834864415        5.6659689562366060E-006   1.2217906295575166E-005
   6.9753185376000006        24.999999755549211        7.4043206410578856E-006   1.9622226936633052E-005
   8.3938376498560014        24.999999666791364        8.9582509232854961E-006   2.8580477859918547E-005
   9.8974679088473625        24.999999570097625        1.0303446131842966E-005   3.8883923991761515E-005
   11.491315983378204        24.999999466285249        1.1443565668400869E-005   5.0327489660162387E-005
   13.180794942380897        24.999999355736907        1.2395177400037471E-005   6.2722667060199856E-005
   14.971642638923752        24.999999238576994        1.3180141102964159E-005   7.5902808163164014E-005
   16.869941197259177        24.999999114779953        1.3821737674390976E-005   8.9724545837554988E-005
   18.882137669094728        24.999998984231894        1.4342676664114139E-005   1.0406722250166913E-004
   21.015065929240414        24.999998846763585        1.4764044777848524E-005   1.1883126727951765E-004
   23.275969884994840        24.999998702166948        1.5104803381404948E-005   1.3393607066092259E-004
   25.672528078094530        24.999998550206382        1.5381499203215285E-005   1.4931756986413786E-004
   28.212879762780204        24.999998390612422        1.5608511354514562E-005   1.6492608121865244E-004
   30.905652548547017        24.999998223091389        1.5797898527125640E-005   1.8072397974577809E-004
   33.759991701459839        24.999998047323224        1.5959659300790449E-005   1.9668363904656855E-004
   36.785591203547433        24.999997862961212        1.6101960440550997E-005   2.1278559948711956E-004
   39.992726675760281        24.999997669631483        1.6231368817898315E-005   2.2901696830501789E-004
   43.392290276305900        24.999997466932260        1.6353107490374428E-005   2.4537007579539233E-004
   46.995827692884255        24.999997254432916        1.6471288830643957E-005   2.6184136462603630E-004
   50.815577354457311        24.999997031672770        1.6589136180300543E-005   2.7843050080633686E-004
   54.864511995724754        24.999996798159579        1.6709198256137356E-005   2.9513969906247423E-004
   59.156382715468240        24.999996553367708        1.6833549061345807E-005   3.1197324812382005E-004
   63.705765678396340        24.999996296735876        1.6963995044250155E-005   3.2893724316807022E-004
   68.528111619100116        24.999996027664263        1.7102329969986827E-005   3.4603957313805706E-004
   73.639798316246129        24.999995745510809        1.7250671930923986E-005   3.6329024506898106E-004
   79.058186215220900        24.999995449585903        1.7412015367312947E-005   3.8070226043629402E-004
   84.801677388134152        24.999995139144620        1.7591133989469640E-005   3.9829339442576367E-004
   90.889778031422210        24.999994813374464        1.7796157116833897E-005   4.1608955154259758E-004
   97.343164713307544        24.999994471375388        1.8041317098038672E-005   4.3413086864063627E-004
   104.18375459610600        24.999994112126483        1.8351706714270205E-005   4.5248257535490649E-004
   111.43477987187237        24.999993734429832        1.8771465271072413E-005   4.7125404062597892E-004
   119.12086666418472        24.999993336815617        1.9377737956460788E-005   4.9063177858243968E-004
   127.26811866403581        24.999992917382478        2.0304180203822836E-005   5.1093595878626253E-004
   135.90420578387796        24.999992473530742        2.1780085930345174E-005   5.3271604471660772E-004
   145.05845813091065        24.999992001520443        2.4194794576715119E-005   5.5691083929332286E-004
   154.76196561876529        24.999991495746738        2.8202341901817339E-005   5.8511318119514022E-004
   165.04768355589121        24.999990947564889        3.4889439142204965E-005   6.2000262033734522E-004
   175.95054456924470        24.999990343406839        4.6041601926560775E-005   6.6604422226390603E-004
   187.50757724339940        24.999989661788710        6.4559294123966938E-005   7.3060351638787303E-004
   199.75803187800338        24.999988868673345        9.5099114325591846E-005   8.2570263071346484E-004
   212.74351379068358        24.999987910247100        1.4504934497949748E-004   9.7075197569296235E-004
   226.50812461812461        24.999986701957400        2.2599071076712088E-004   1.1967426864600832E-003
   241.09861209521210        24.999985112035617        3.5585149500860747E-004   1.5525941814686908E-003
   256.56452882092486        24.999982937090735        5.6203699305257216E-004   2.1146311745212630E-003
   272.95840055018039        24.999979866484878        8.8589941373839944E-004   3.0005305882596623E-003
   290.33590458319122        24.999975431115892        1.3890135793204182E-003   4.3895441675800805E-003
   308.75605885818271        24.999968930924030        2.1618310734083917E-003   6.5513752409884721E-003
   328.28142238967371        24.999959333929930        3.3353916574441170E-003   9.8867668984325887E-003
   348.97830773305412        24.999945137955496        5.0968613227197991E-003   1.4983628221152387E-002
   370.91700619703738        24.999924184486840        7.7097206942155971E-003   2.2693348915367985E-002
   394.17202656885962        24.999893412574590        1.1539419750690161E-002   3.4232768666058150E-002
   418.82234816299120        24.999848539497183        1.7085211615110993E-002   5.1317980281169143E-002
   444.95168905277069        24.999783654299414        2.5018656578517071E-002   7.6336636859686210E-002
   472.64879039593694        24.999690710969510        3.6228900718810991E-002  0.11256553757849720     
   502.00771781969320        24.999558909706131        5.1874285888402434E-002  0.16443982346689964     
   533.12818088887479        24.999373958423558        7.3439117138391838E-002  0.23787894060529147     
   566.11587174220733        24.999117212163320       0.10279353472984799       0.34067247533513945     
   601.08282404673980        24.998764695695336       0.14225345886202934       0.48292593419716878     
   638.14779348954426        24.998286024172295       0.19463657796471506       0.67756251216188379     
   677.43666109891694        24.997643247577731       0.26330948012841282       0.94087199229029661     
   719.08286076485194        24.996789657094638       0.35222032014761562        1.2930923124379121     
   763.22783241074308        24.995668602666576       0.46591118684471372        1.7590034992826258     
   810.02150235538772        24.994212382062813       0.60950450049840954        2.3685079997810354     
   859.62279249671099        24.992341269345886       0.78865858512912657        3.1571665849101622     
   912.20016004651370        24.989962755570136        1.0094888789562253        4.1666554638663875     
   967.93216964930457        24.986971072674280        1.2784533308883883        5.4451087947547760     
   1027.0080998282629        24.983247067580642        1.6022027275623769        7.0473115223171527     
   1089.6285858179588        24.978658481320714        1.9873993995155084        9.0347109218326604     
   1156.0063009670364        24.973060671029902        2.4405104524300802        11.475221374262741     
   1226.3666790250586        24.966297795745774        2.9675837033116865        14.442805077574427     
   1300.9486797665622        24.958204460211068        3.5740167111198997        18.016821788694326     
   1380.0056005525560        24.948607789532133        4.2643302063325415        22.281151995026867     
   1463.8059365857093        24.937329887775693        5.0419572496559395        27.323109244682808     
   1552.6342927808519        24.924190605557616        5.9090595748623134        33.232168819545123     
   1646.7923503477032        24.909010531741586        6.8663806220982986        40.098549441643421     
   1746.5998913685655        24.891614114867355        7.9131425543629339        48.011691996006356     
   1852.3958848506795        24.871832811140465        9.0469922782105456        57.058684274216901     
   1964.5396379417205        24.849508151883025        10.263998986154190        67.322683260371093     
   2083.4120162182239        24.824494630632337        11.558702658778859        78.881385919149949     
   2209.4167371913172        24.796662338658322        12.924208881779281        91.805594800929228     
   2342.9817414227964        24.765899252414535        14.352325942853726        106.15792074378295     
   2484.5606459081641        24.732113112874806        15.833736578976369        121.99165732275932     
   2634.6342846626540        24.695232885599715        17.358193319446954        139.34985064220626     
   2793.7123417424132        24.655209709679767        18.914732252581938        158.26458289478819     
   2962.3350822469583        24.612017384507411        20.491891207978430        178.75647410276662     
   3141.0751871817761        24.565652361042225        22.077925427315410        200.83439953008204     
   3330.5396984126828        24.516133231264988        23.661013483798371        224.49541301388041     
   3520.0042096435895        24.466474867336018        25.146399869081556        249.64181288296197     
   3709.4687208744963        24.416870079992115        26.536017736903485        276.17783061986546     
   3898.9332321054030        24.367476323202663        27.832837493386091        304.01066811325154     
   4088.3977433363098        24.318421301417160        29.040504855216628        333.05117296846817     
   4277.8622545672170        24.269807522122047        30.163072284275938        363.21424525274409     
   4467.3267657981232        24.221716258371963        31.204801065499378        394.41904631824349     
   4656.7912770290295        24.174210933106789        32.170019513351498        426.58906583159501     
   4846.2557882599358        24.127340010737441        33.063022678446153        459.65208851004115     
   5047.0881701646967        24.078412128800309        33.933448861436986        493.58553737147815     
   5247.9205520694577        24.030268047528843        34.732507703144549        528.31804507462266     
   5448.7529339742186        23.982926775031515        35.464768474573603        563.78281354919625     
   5649.5853158789796        23.936398302460830        36.134554506801109        599.91736805599737     
   5850.4176977837406        23.890685596124506        36.745936669065429        636.66330472506274     
   6051.2500796885015        23.845785926424828        37.302735188305512        673.96603991336826     
   6252.0824615932625        23.801691997318727        37.808525860573958        711.77456577394219     
   6452.9148434980234        23.758392882320539        38.266649863765210        750.04121563770741     
   6653.7472254027844        23.715874808493329        38.680225553328071        788.72144119103552     
   6854.5796073075453        23.674121788471570        39.052161922470958        827.77360311350651     
   7055.4119892123063        23.633116184245374        39.385170512402432        867.15877362590891     
   7256.2443711170672        23.592839153657334        39.681778325008636        906.84055195091753     
   7457.0767530218282        23.553271026333455        39.944340307460457        946.78489225837802     
   7657.9091349265891        23.514391611431023        40.175051564954742        986.95994382333276     
   7858.7415168313501        23.476180446387836        40.375958904384142        1027.3359027277170     
   8071.6238416503966        23.436403378398367        40.557698950340004        1067.8936016780569     
   8284.5061664694440        23.397328087420391        40.710321758621326        1108.6039234366783     
   8497.3884912884914        23.358930939350380        40.835789583260116        1149.4397130199384     
   8710.2708161075388        23.321188397344606        40.935928675893294        1190.3756416958317     
   8923.1531409265863        23.284077475904716        41.012440701059951        1231.3880823968916     
   9136.0354657456337        23.247575820864224        41.066912152674711        1272.4549945495662     
   9348.9177905646811        23.211661767231732        41.100823072753023        1313.5558176223192     
   9561.8001153837286        23.176314378068923        41.115554803106811        1354.6713724254259     
   9774.6824402027760        23.141513490033887        41.112396625074226        1395.7837690505003     
   9987.5647650218234        23.107239704286130        41.092553612069587        1436.8763226625699     
   10200.447089840871        23.073474394284421        41.057152937362105        1477.9334755999321     
   10413.329414659918        23.040199698690412        41.007249677115070        1518.9407252770472     
   10626.211739478966        23.007398511426409        40.943831865135074        1559.8845571421823     
   10839.094064298013        22.975054468913953        40.867825004199183        1600.7523821463815     
   11051.976389117061        22.943151934453208        40.780096191755213        1641.5324783381368     
   11264.858713936108        22.911675980511575        40.681458241589361        1682.2139365797261     
   11477.741038755155        22.880612348740790        40.572673916873967        1722.7866104966001     
   11690.623363574203        22.849947449724901        40.454458178566348        1763.2410686751664     
   11903.505688393250        22.819668335848647        40.327481111326620        1803.5685497864929     
   12116.388013212298        22.789762680747835        40.192370622263915        1843.7609204087569     
   12329.270338031345        22.760218755291024        40.049715209535570        1883.8106356182925     
   12542.152662850393        22.731025401585384        39.900066658643674        1923.7107022769362     
   12755.034987669440        22.702172006339001        39.743942565369963        1963.4546448423062     
   12967.917312488487        22.673648474501466        39.581828644555088        2003.0364734868613     
   13180.799637307535        22.645445203689942        39.414180827627305        2042.4506543144885     
   13393.681962126582        22.617553059616711        39.241427172163910        2081.6920814866526     
   13606.564286945630        22.589963352537019        39.063969303656236        2120.7560507903090     
   13832.219551253820        22.561048606365951        38.871025398896499        2159.6270761892056     
   14057.874815562011        22.532454246260606        38.673659741800641        2198.3007359310063     
   14283.530079870201        22.504171780731149        38.472264149225488        2236.7730000802317     
   14509.185344178391        22.476192828231525        38.267205338817512        2275.0402054190490     
   14734.840608486582        22.448509424939257        38.058826880669159        2313.0990322997181     
   14960.495872794772        22.421114002604149        37.847450462184788        2350.9464827619031     
   15186.151137102963        22.393999366450647        37.633377525705498        2388.5798602876084     
   15411.806401411153        22.367158659022799        37.416890932349496        2425.9967512199578     
   15637.461665719344        22.340585362644390        37.198254984135211        2463.1950062040928     
   15863.116930027534        22.314273279663883        36.977716259359433        2500.1727224634524     
   16088.772194335725        22.288216519184896        36.755504510388882        2536.9282269738414     
   16314.427458643915        22.262409481056615        36.531833813388744        2573.4600607872303     
   16540.082722952106        22.236846838595142        36.306903769445931        2609.7669645566762     
   16765.737987260294        22.211523521374701        36.080900626844581        2645.8478651835208     
   16991.393251568483        22.186434698895553        35.853998275280617        2681.7018634588012     
   17217.048515876671        22.161575765456366        35.626359113609219        2717.3282225724106     
   17442.703780184860        22.136942326263174        35.398134813186715        2752.7263573855971     
   17668.359044493049        22.112530184671819        35.169467001084918        2787.8958243866819     
   17894.014308801237        22.088335330422090        34.940487882822964        2822.8363122695050     
   18119.669573109426        22.064353928729950        34.711320818161695        2857.5476330876668     
   18345.324837417615        22.040582310126840        34.482080858658229        2892.0297139463250     
   18570.980101725803        22.017016963344943        34.252874790704844        2926.2825887370300     
   18796.635366033992        21.993654540336365        34.023801199872608        2960.3063899369026     
   19022.290630342181        21.970491829551491        33.794951945245593        2994.1013418821481     
   19247.945894650369        21.947525748570314        33.566412893284017        3027.6677547754321     
   19473.601158958558        21.924753332590704        33.338264497914601        3061.0060192733467     
   19699.256423266746        21.902171726532508        33.110582060746097        3094.1166013340930     
   19924.911687574935        21.879778179534448        32.883435857629991        3127.0000371917231     
   20150.566951883124        21.857570040572174        32.656891259202119        3159.6569284509251     
   20376.222216191312        21.835544754391492        32.431008897255296        3192.0879373481803     
   20601.877480499501        21.813699857397957        32.205844880340820        3224.2937822285212     
   20827.532744807690        21.792032973423709        31.981451042195882        3256.2752332707169     
   21053.188009115878        21.770541809420848        31.757875204118275        3288.0331084748350     
   21278.843273424067        21.749224151167226        31.535161436676699        3319.5682699115118     
   21504.498537732255        21.728077859063283        31.313350311684051        3350.8816202231960     
   21730.153802040444        21.707100864077415        31.092479139716080        3381.9740993629121     
   21955.809066348633        21.686291163875282        30.872582191495223        3412.8466815544075     
   22181.464330656821        21.665646819151277        30.653690903084051        3443.5003724574917     
   22407.119594965010        21.645165950167573        30.435834065748370        3473.9362065232399     
   22632.774859273199        21.624846733498821        30.219038001656788        3504.1552445248967     
   22858.430123581387        21.604687398975656        30.003326726720207        3534.1585712516171     
