 #              _____________________  _______________________             #
 #              ___  __ \__  __ \_  / / /_  /___  ____/_  ___/             #
 #              __  / / /_  /_/ /  / / /_  __/_  __/  _____ \              #
 #              _  /_/ /_  _, _// /_/ / / /_ _  /___  ____/ /              #
 #              /_____/ /_/ |_| \____/  \__/ /_____/  /____/               #
 #                                                                         #
  
 #        time                      T            heat flux [W.L-2]   in    x              directions   cumulative flux
 #-----------------------------------------------------------------------------------------------

   0.0000000000000000        25.000000000000000       -0.0000000000000000        0.0000000000000000     
   1.0000000000000000        24.999999999999599        6.7643668444361667E-011   6.7643668444361667E-011
   2.0600000000000001        24.999999915262375        4.5834721618121051E-006   4.5835398054805494E-006
   3.1836000000000002        24.999999787176964        9.5124893206843977E-006   1.4096029126164947E-005
   4.3746160000000005        24.999999645081832        1.3465773740506418E-005   2.7561802866671365E-005
   5.6370929600000004        24.999999500524098        1.6477180473373240E-005   4.4038983340044605E-005
   6.9753185376000006        24.999999357061064        1.8807753683347562E-005   6.2846737023392160E-005
   8.3938376498560014        24.999999215216988        2.0685175918799855E-005   8.3531912942192015E-005
   9.8974679088473625        24.999999074299669        2.2294718959869941E-005   1.0582663190206195E-004
   11.491315983378204        24.999998932974975        2.3816555341227330E-005   1.2964318724328929E-004
   13.180794942380897        24.999998789361229        2.5470149509487830E-005   1.5511333675277713E-004
   14.971642638923752        24.999998640886847        2.7566096427733606E-005   1.8267943318051074E-004
   16.869941197259177        24.999998483962010        3.0574009244333010E-005   2.1325344242484375E-004
   18.882137669094728        24.999998313436851        3.5217948202159800E-005   2.4847139062700356E-004
   21.015065929240414        24.999998121773942        4.2614033226584606E-005   2.9108542385358814E-004
   23.275969884994840        24.999997897822027        5.4469512598132143E-005   3.4555493645172029E-004
   25.672528078094530        24.999997625038215        7.3368815947105894E-005   4.1892375239882616E-004
   28.212879762780204        24.999997278903791        1.0318179043622441E-004   5.2210554283505059E-004
   30.905652548547017        24.999996823299540        1.4963873475437622E-004   6.7174427758942687E-004
   33.759991701459839        24.999996205374270        2.2113452228467208E-004   8.9287879987409897E-004
   36.785591203547433        24.999995348401995        3.2984097465771421E-004   1.2227197745318132E-003
   39.992726675760281        24.999994141918318        4.9323116531496767E-004   1.7159509398467809E-003
   43.392290276305900        24.999992428219898        7.3614834519730862E-004   2.4520992850440896E-003
   46.995827692884255        24.999989984047595        1.0935874316686542E-003   3.5456867167127440E-003
   50.815577354457311        24.999986495952005        1.6143986823635745E-003   5.1600853990763189E-003
   54.864511995724754        24.999981527452771        2.3661715082568023E-003   7.5262569073331212E-003
   59.156382715468240        24.999974475646628        3.4416106600687678E-003   1.0967867567401889E-002
   63.705765678396340        24.999964514391067        4.9667761028260411E-003   1.5934643670227931E-002
   68.528111619100116        24.999950520596688        7.1116192099651828E-003   2.3046262880193114E-002
   73.639798316246129        24.999930979511998        1.0103307555588989E-002   3.3149570435782101E-002
   79.058186215220900        24.999903864202992        1.4242882895594304E-002   4.7392453331376407E-002
   84.801677388134152        24.999866483750282        1.9925834026715033E-002   6.7318287358091436E-002
   90.889778031422210        24.999815294061062        2.7667177917294391E-002   9.4985465275385830E-002
   97.343164713307544        24.999745664689797        3.8131616354490985E-002  0.13311708162987682     
   104.18375459610600        24.999651594769535        5.2169256778462722E-002  0.18528633840833952     
   111.43477987187237        24.999525371183246        7.0857238838222383E-002  0.25614357724656189     
   119.12086666418472        24.999357162575063        9.5547376373304085E-002  0.35169095361986596     
   127.26811866403581        24.999134543850669       0.12791959315354284       0.47961054677340881     
   135.90420578387796        24.998841947579152       0.17004048893269930       0.64965103570610805     
   145.05845813091065        24.998460041307936       0.22442581631473543       0.87407685202084351     
   154.76196561876529        24.997965033327784       0.29410498488754711        1.1681818369083907     
   165.04768355589121        24.997327913912695       0.38268495720508683        1.5508667941134775     
   175.95054456924470        24.996513644712692       0.49441006402748494        2.0452768581409626     
   187.50757724339940        24.995480313881988       0.63421364708929795        2.6794905052302607     
   199.75803187800338        24.994178284131202       0.80775632173996004        3.4872468269702206     
   212.74351379068358        24.992549364125132        1.0214455842619348        4.5086924112321558     
   226.50812461812461        24.990526042721839        1.2824308749960192        5.7911232862281752     
   241.09861209521210        24.988030829939554        1.5985684333009360        7.3896917195291110     
   256.56452882092486        24.984975752530765        1.9783508201744520        9.3680425397035627     
   272.95840055018039        24.981262053480961        2.4307970764787301        11.798839616182292     
   290.33590458319122        24.976780143245588        2.9653011311480584        14.764140747330350     
   308.75605885818271        24.971409845657274        3.5914382437834713        18.355578991113820     
   328.28142238967371        24.965020972986416        4.3187318641566188        22.674310855270438     
   348.97830773305412        24.957474252745769        5.1563861566523981        27.830697011922837     
   370.91700619703738        24.948622613970549        6.1129923505020161        33.943689362424855     
   394.17202656885962        24.938312821250605        7.1962200741955007        41.139909436620357     
   418.82234816299120        24.926387440323929        8.4125053747474769        49.552414811367832     
   444.95168905277069        24.912687070544401        9.7667523890418373        59.319167200409666     
   472.64879039593694        24.897052801012290        11.262061520247485        70.581228720657151     
   502.00771781969320        24.879328808051113        12.899499617167743        83.480728337824900     
   533.12818088887479        24.859365012793262        14.677924789423065        98.158653127247959     
   566.11587174220733        24.837019711874312        16.593876054310172        114.75252918155813     
   601.08282404673980        24.812162095255086        18.641534588864204        133.39406377042235     
   638.14779348954426        24.784674576227506        20.812758947469273        154.20682271789161     
   677.43666109891694        24.754454836809803        23.097195837186433        177.30401855507804     
   719.08286076485194        24.721417581936173        25.482455997875395        202.78647455295345     
   763.22783241074308        24.685495916372602        27.954351548299865        230.74082610125330     
   810.02150235538772        24.646642340940108        30.497181446081061        261.23800754733435     
   859.62279249671099        24.604829350017241        33.094052990251853        294.33206053758619     
   912.20016004651370        24.560049671736461        35.727222652901631        330.05928319048780     
   967.93216964930457        24.512316099477005        38.378449363947347        368.43773255443517     
   1027.0080998282629        24.461661008876916        41.029341259682404        409.46707381411755     
   1089.6285858179588        24.408135571592993        43.661687482189514        453.12876129630706     
   1156.0063009670364        24.351808676173334        46.257767403701720        499.38652870000880     
   1226.3666790250586        24.292765694279673        48.800622200854548        548.18715090086334     
   1300.9486797665622        24.231107050851922        51.274291439077672        599.46144233994096     
   1380.0056005525560        24.166946687657592        53.664006662267589        653.12544900220860     
   1463.8059365857093        24.100410492302125        55.956341906017251        709.08179090822580     
   1552.6342927808519        24.031634570995706        58.139334202019306        767.22112511024511     
   1646.7923503477032        23.960763532831319        60.202560213316296        827.42368532356136     
   1746.5998913685655        23.887948910545244        62.137164819665159        889.56085014322650     
   1852.3958848506795        23.813347600943384        63.935863509727128        953.49671365295364     
   1964.5396379417205        23.737120227243974        65.592930660205383        1019.0896443131591     
   2083.4120162182239        23.659429707631645        67.104142818406459        1086.1937871315656     
   2209.4167371913172        23.580440013296357        68.466703090884550        1154.6604902224501     
   2342.9817414227964        23.500314738614563        69.679176804199969        1224.3396670266500     
   2484.5606459081641        23.419216101860478        70.741369345416828        1295.0810363720668     
   2634.6342846626540        23.337303859973897        71.654240223297265        1366.7352765953640     
   2793.7123417424132        23.254734373380749        72.419780585610766        1439.1550571809748     
   2962.3350822469583        23.171660150842371        73.040867884195876        1512.1959250651707     
   3141.0751871817761        23.088228936451554        73.521185824117865        1585.7171108892885     
   3330.5396984126828        23.004582944666858        73.865121174831827        1659.5822320641203     
   3520.0042096435895        22.925353725748376        74.072346826937022        1733.6545788910573     
   3709.4687208744963        22.850200369681247        74.166247039357643        1807.8208259304149     
   3898.9332321054030        22.778812285733821        74.166073182485803        1881.9868991129008     
   4088.3977433363098        22.710906813631482        74.087756190977672        1956.0746553038784     
   4277.8622545672170        22.646227100067811        73.944481340623938        2030.0191366445024     
   4467.3267657981232        22.584539752524535        73.747193039269092        2103.7663296837713     
   4656.7912770290295        22.525632424747933        73.505012792510826        2177.2713424762824     
   4846.2557882599358        22.469311904460831        73.225540825672567        2250.4968833019548     
   5047.0881701646967        22.412309644632888        72.894976712152427        2323.3918600141074     
   5247.9205520694577        22.357813822224667        72.536386354164748        2395.9282463682721     
   5448.7529339742186        22.305651432056003        72.155008479199040        2468.0832548474709     
   5649.5853158789796        22.255664711420216        71.755177985238333        2539.8384328327093     
   5850.4176977837406        22.207709325490331        71.340542776746105        2611.1789756094554     
   6051.2500796885015        22.161652872769285        70.914177024769629        2682.0931526342251     
   6252.0824615932625        22.117373791968689        70.478660237717378        2752.5718128719427     
   6452.9148434980234        22.074760344469020        70.036150918323713        2822.6079637902662     
   6653.7472254027844        22.033709359079076        69.588485878401144        2892.1964496686674     
   6854.5796073075453        21.994125846584105        69.137176886853794        2961.3336265555213     
   7055.4119892123063        21.955922283283606        68.683468202787438        3030.0170947583088     
   7256.2443711170672        21.919017766217841        68.228395924712530        3098.2454906830212     
   7457.0767530218282        21.883337321638678        67.772828229146199        3166.0183189121676     
   7657.9091349265891        21.848811339694116        67.317492665555420        3233.3358115777232     
   7858.7415168313501        21.815375408609093        66.862964478096757        3300.1987760558200     
   8071.6238416503966        21.781086684230615        66.382706684790350        3366.5814827406102     
   8284.5061664694440        21.747884090627650        65.904497039286099        3432.4859797798963     
   8497.3884912884914        21.715706217579363        65.428729076213742        3497.9147088561099     
   8710.2708161075388        21.684495721704835        64.955711518567270        3562.8704203746770     
   8923.1531409265863        21.654199208198726        64.485690462304291        3627.3561108369813     
   9136.0354657456337        21.624766879395008        64.018861565742867        3691.3749724027243     
   9348.9177905646811        21.596152240400460        63.555378082296073        3754.9303504850204     
   9561.8001153837286        21.568312199934020        63.095320863036882        3818.0256713480571     
   9774.6824402027760        21.541206262420925        62.638774977657384        3880.6644463257144     
   9987.5647650218234        21.514796291291233        62.185820826374020        3942.8502671520882     
   10200.447089840871        21.489046497811351        61.736516826729947        4004.5867839788184     
   10413.329414659918        21.463923354972291        61.290896102635571        4065.8776800814539     
   10626.211739478966        21.439395460486352        60.848970533171865        4126.7266506146261     
   10839.094064298013        21.415433384555104        60.410736087766068        4187.1373867023922     
   11051.976389117061        21.392009523222637        59.976177202158496        4247.1135639045506     
   11264.858713936108        21.369097603207784        59.545306474899640        4306.6588703794505     
   11477.741038755155        21.346673142544155        59.118095507761801        4365.7769658872121     
   11690.623363574203        21.324713364613732        58.694490388411467        4424.4714562756235     
   11903.505688393250        21.303196920082833        58.274434343317800        4482.7458906189413     
   12116.388013212298        21.282103707919330        57.857875597960806        4540.6037662169019     
   12329.270338031345        21.261414769204901        57.444767201066504        4598.0485334179684     
   12542.152662850393        21.241112215903264        57.035064960044259        4655.0835983780125     
   12755.034987669440        21.221179171951231        56.628725804935272        4711.7123241829477     
   12967.917312488487        21.201599718047113        56.225706929196662        4767.9380311121440     
   13180.799637307535        21.182358838003115        55.825965487539619        4823.7639965996832     
   13393.681962126582        21.163442366683665        55.429458595606285        4879.1934551952891     
   13606.564286945630        21.144837296000830        55.036107538380286        4934.2295627336689     
   13832.219551253820        21.125451279416033        54.622652172546218        4988.8522149062155     
   14057.874815562011        21.106385778498343        54.212664623444972        5043.0648795296602     
   14283.530079870201        21.087627681919990        53.806114957214987        5096.8709944868751     
   14509.185344178391        21.069164372593530        53.402964983250271        5150.2739594701252     
   14734.840608486582        21.050984014615402        53.003170744877750        5203.2771302150031     
   14960.495872794772        21.033075497442283        52.606685643812860        5255.8838158588160     
   15186.151137102963        21.015427968124392        52.213503182525528        5308.0973190413415     
   15411.806401411153        20.998031468022464        51.823576737294758        5359.9208957786359     
   15637.461665719344        20.980876872794369        51.436839477823732        5411.3577352564598     
   15863.116930027534        20.963955649812561        51.053228285325879        5462.4109635417853     
   16088.772194335725        20.947259730374967        50.672690256368774        5513.0836537981540     
   16314.427458643915        20.930781458509337        50.295180946098007        5563.3788347442523     
   16540.082722952106        20.914513570841379        49.920661218781198        5613.2994959630332     
   16765.737987260294        20.898449183557680        49.549094939967290        5662.8485909030005     
   16991.393251568483        20.882581778543845        49.180447671577973        5712.0290385745784     
   17217.048515876671        20.866905187451437        48.814686035436935        5760.8437246100157     
   17442.703780184860        20.851413574361167        48.451777439167451        5809.2955020491827     
   17668.359044493049        20.836101417916041        48.091689975144213        5857.3871920243273     
   17894.014308801237        20.820963493570719        47.734392392737689        5905.1215844170647     
   18119.669573109426        20.805994856353301        47.379854096301720        5952.5014385133663     
   18345.324837417615        20.791190824353890        47.028045148202388        5999.5294836615685     
   18570.980101725803        20.776547365854917        46.678896654722294        6046.2083803162905     
   18796.635366033992        20.762060412518984        46.332379884541211        6092.5407602008318     
   19022.290630342181        20.747725859980203        45.988487892477160        6138.5292480933085     
   19247.945894650369        20.733539749480062        45.647212448702469        6184.1764605420112     
   19473.601158958558        20.719498346474538        45.308537550985207        6229.4849980929966     
   19699.256423266746        20.705598148574516        44.972440957523091        6274.4574390505195     
   19924.911687574935        20.691835866112612        44.638897123004227        6319.0963361735239     
   20150.566951883124        20.678208398310996        44.307879346985125        6363.4042155205088     
   20376.222216191312        20.664712812595791        43.979360959605081        6407.3835764801142     
   20601.877480499501        20.651346328126586        43.653315862203442        6451.0368923423175     
   20827.532744807690        20.638106302742841        43.329718718591735        6494.3666110609092     
   21053.188009115878        20.624990222332983        43.008544981002260        6537.3751560419114     
   21278.843273424067        20.611995691862916        42.689770847964830        6580.0649268898760     
   21504.498537732255        20.599120427556279        42.373373200544123        6622.4383000904199     
   21730.153802040444        20.586362249906038        42.059329536992898        6664.4976296274126     
   21955.809066348633        20.573719077317762        41.747617913441182        6706.2452475408536     
   22181.464330656821        20.561188920258807        41.438216892600622        6747.6834644334540     
   22407.119594965010        20.548769875831674        41.131105500241219        6788.8145699336956     
   22632.774859273199        20.536460122716079        40.826263188396801        6829.6408331220928     
   22858.430123581387        20.524257916440106        40.523669804156526        6870.1645029262490     
